timestamp, PPG_1, PPG_2, window1460803354,124014,1180600,11460803354,123942,1180481,11460803354,123890,1180566,11460803354,123976,1179986,11460803354,123993,1179866,11460803354,123881,1179828,11460803354,123881,1179261,11460803354,123817,1179394,11460803354,123864,1179368,11460803354,123839,1178808,11460803354,123860,1178302,11460803354,123741,1177824,11460803354,123800,1177414,11460803354,123771,1177500,11460803354,123792,1177534,11460803354,123834,1177119,11460803354,123724,1177081,11460803354,123847,1176753,11460803354,123741,1176232,11460803354,123732,1175913,11460803354,123720,1175511,11460803354,123783,1175174,11460803354,123754,1175324,11460803354,123732,1175405,11460803354,123771,1175085,11460803354,123720,1175119,11460803354,123800,1175405,11460803354,123792,1175149,11460803354,123758,1175225,11460803354,123809,1175098,11460803354,123698,1174884,11460803354,123779,1174556,11460803354,123741,1174326,11460803354,123783,1174065,11460803354,123758,1174262,11460803354,123762,1174667,11460803354,123754,1174304,11460803354,123779,1174667,11460803354,123809,1174876,11460803354,123805,1174586,11460803354,123856,1174893,11460803354,123800,1175396,11460803354,123800,1175396,11460803354,123775,1175477,11460803354,123617,1175746,11460803354,123617,1175746,11460803354,123681,1175750,11460803354,123741,1175627,11460803354,123758,1175435,11460803354,123809,1175170,11460803354,123758,1174965,11460803354,123783,1174658,11460803354,123839,1174633,11460803354,123881,1174620,11460803354,123864,1174620,11460803354,123873,1174986,11460803354,123898,1175225,11460803354,123898,1175225,11460803354,123915,1175021,11460803354,123950,1175413,11460803354,123950,1175413,11460803354,123980,1175242,11460803354,124005,1174996,11460803354,124052,1174935,11460803354,124056,1174906,11460803354,124022,1174727,11460803354,124103,1175077,11460803354,124124,1174787,11460803354,124061,1174573,11460803354,124010,1174372,11460803354,124039,1174723,11460803354,124069,1174736,11460803354,124065,1174446,11460803354,124095,1174692,11460803354,124018,1174986,11460803354,124099,1174526,11460803354,124163,1174906,11460803354,124163,1174906,11460803354,124035,1174650,11460803354,124005,1174317,11460803354,124001,1174129,11460803354,124027,1174181,11460803354,123907,1173912,11460803354,123946,1174070,11460803354,123881,1173767,11460803354,123898,1173963,11460803354,123796,1174116,11460803354,123788,1173750,11460803354,123826,1173963,11460803354,123805,1174458,11460803354,123805,1174458,11460803354,123813,1174167,11460803354,123796,1174241,11460803354,123779,1173839,11460803354,123779,1173839,11460803354,123703,1173366,11460803354,123694,1173127,11460803354,123741,1172859,11460803354,123694,1172491,11460803354,123663,1172262,11460803354,123604,1172359,11460803354,123655,1172504,11460803354,123595,1172385,11460803354,123617,1172607,11460803354,123651,1172773,11460803354,123634,1172586,11460803354,123608,1172717,11460803354,123549,1172760,11460803354,123523,1172590,11460803354,123561,1172785,11460803354,123629,1172956,11460803354,123519,1172637,11460803354,123536,1172317,11460803354,123677,1172044,11460803354,123659,1171788,11460803354,123690,1171477,11460803354,123625,1171737,11460803354,123604,1171574,11460803354,123570,1171784,11460803354,123557,1171971,11460803354,123544,1171843,11460803354,123634,1172163,11460803354,123612,1172330,11460803354,123566,1172201,11460803354,123566,1172402,11460803354,123634,1172508,11460803354,123642,1172304,11460803354,123638,1171962,11460803354,123694,1172133,11460803354,123646,1171856,11460803354,123681,1172137,11460803354,123583,1172440,11460803354,123686,1172266,11460803354,123642,1172590,11460803354,123749,1172880,11460803354,123741,1172717,11460803354,123792,1173024,11460803354,123758,1173234,11460803354,123732,1172969,11460803354,123698,1173119,11460803354,123762,1173344,11460803354,123766,1173144,11460803354,123724,1172897,11460803354,123796,1172666,11460803354,123749,1172552,11460803354,123830,1172444,11460803354,123800,1172683,11460803354,123839,1172624,11460803354,123783,1173054,11460803354,123919,1173268,11460803354,123826,1173063,11460803354,123839,1173314,11460803354,123919,1173690,11460803354,123911,1173468,11460803354,123851,1173873,11460803354,124018,1174163,11460803354,123847,1173963,11460803354,123942,1174215,11460803354,123907,1174423,11460803354,123907,1174436,11460803354,123902,1174658,11460803354,123907,1174645,11460803354,123873,1174671,11460803354,123873,1174185,11460803354,123826,1173775,11460803354,123885,1173570,11460803354,123907,1173784,11460803354,123928,1173805,11460803354,123826,1173426,11460803354,123856,1173596,11460803354,123771,1173690,11460803354,123703,1173400,11460803354,123732,1173524,11460803354,123651,1173621,11460803354,123604,1173123,11460803354,123669,1173400,11460803354,123604,1173221,11460803354,123527,1172897,11460803354,123608,1172415,11460803354,123578,1172116,11460803354,123540,1172154,11460803354,123583,1172205,11460803354,123583,1172188,11460803354,123481,1171937,11460803354,123540,1172031,11460803354,123536,1172044,11460803354,123557,1171716,11460803354,123498,1171830,11460803354,123485,1171966,11460803354,123485,1171779,11460803354,123404,1171259,11460803354,123382,1170874,11460803354,123408,1170610,11460803354,123455,1170252,11460803354,123408,1170419,11460803354,123464,1170171,11460803354,123373,1170252,11460803354,123382,1170333,11460803354,123361,1170188,11460803354,123297,1170397,11460803354,123386,1170436,11460803354,123382,1170090,11460803354,123417,1170397,11460803354,123310,1170653,11460803354,123369,1170406,11460803354,123339,1170610,11460803354,123382,1170601,11460803354,123352,1170402,11460803354,123442,1170184,11460803354,123382,1169822,11460803354,123417,1169634,11460803354,123400,1169361,11460803354,123365,1169526,11460803354,123331,1169280,11460803354,123421,1169253,11460803354,123430,1169587,11460803354,123425,1169458,11460803354,123434,1169475,11460803354,123451,1169544,11460803354,123417,1169488,11460803354,123447,1169651,11460803354,123425,1169958,11460803354,123413,1169714,11460803354,123373,1169894,11460803354,123373,1169600,11460803354,123566,1169595,11460803354,123447,1169505,11460803354,123485,1169710,11460803354,123532,1169672,11460803354,123549,1169907,11460803354,123570,1170180,11460803354,123527,1170038,11460803354,123566,1170299,11460803354,123570,1170768,11460803354,123536,1170444,11460803354,123540,1170772,11460803354,123646,1170935,11460803354,123646,1170755,11460803354,123553,1170555,11460803354,123655,1170482,11460803354,123642,1170380,11460803354,123655,1170197,11460803354,123711,1170457,11460803354,123703,1170328,11460803354,123749,1170726,11460803354,123741,1170994,11460803354,123788,1170832,11460803354,123779,1171058,11460803354,123707,1171391,11460803354,123775,1171147,11460803354,123741,1171340,11460803354,123690,1171566,11460803354,123677,1171327,11460803354,123673,1171310,11460803354,123711,1171075,11460803354,123677,1170772,11460803354,123646,1170414,11460803354,123591,1170082,11460803354,123570,1169839,11460803354,123651,1169936,11460803354,123604,1170055,11460803354,123570,1169714,11460803354,123553,1169390,11460803354,123515,1169634,11460803354,123570,1169327,11460803354,123489,1169480,11460803354,123493,1169731,11460803354,123515,1169526,11460803354,123527,1169638,11460803354,123400,1169851,11460803354,123421,1169710,11460803354,123447,1169310,11460803354,123438,1169007,11460803354,123438,1168751,11460803354,123373,1169015,11460803354,123455,1169224,11460803354,123459,1169028,11460803354,123344,1169215,11460803354,123373,1169540,11460803354,123348,1169241,11460803354,123356,1169245,11460803354,123356,1169331,11460803354,123348,1169049,11460803354,123322,1169276,11460803354,123318,1169412,11460803354,123382,1169190,11460803354,123314,1169407,11460803354,123344,1169361,11460803354,123216,1169041,11460803354,123293,1168887,11460803354,123352,1168571,11460803354,123305,1168328,11460803354,123365,1168047,11460803354,123331,1168354,11460803354,123297,1168030,11460803354,123382,1168430,11460803354,123301,1168652,11460803354,123293,1168542,11460803354,123314,1168844,11460803354,123382,1169202,11460803354,123297,1168836,11460803354,123339,1169164,11460803354,123322,1169322,11460803354,123335,1168972,11460803354,123267,1169202,11460803354,123276,1169054,11460803354,123382,1168849,11460803354,123327,1168819,11460803354,123378,1168444,11460803354,123396,1168235,11460803354,123386,1168542,11460803354,123297,1168861,11460803354,123382,1168690,11460803354,123373,1169049,11460803354,123378,1169390,11460803354,123451,1169331,11460803354,123455,1169693,11460803354,123442,1169744,11460803354,123455,1169689,11460803354,123481,1169621,11460803354,123468,1169429,11460803354,123459,1169293,11460803354,123464,1169612,11460803354,123472,1169907,11460803354,123629,1169719,11460803354,123532,1170112,11460803354,123506,1170286,11460803354,123519,1170150,11460803354,123515,1170406,11460803354,123519,1170730,11460803354,123515,1170709,11460803354,123617,1170948,11460803354,123549,1171195,11460803354,123608,1170897,11460803354,123574,1171067,11460803354,123617,1170956,11460803354,123629,1170709,11460803354,123634,1170529,11460803354,123621,1170307,11460803354,123646,1170086,11460803354,123642,1170372,11460803354,123655,1170584,11460803354,123625,1170324,11460803354,123634,1170448,11460803354,123612,1170555,11460803354,123549,1170311,11460803354,123638,1170453,11460803354,123502,1170538,11460803354,123523,1170180,11460803354,123574,1170282,11460803354,123481,1170363,11460803354,123365,1170082,11460803354,123447,1169617,11460803354,123476,1169194,11460803354,123489,1168836,11460803354,123400,1168563,11460803354,123356,1168776,11460803354,123361,1168529,11460803354,123365,1168742,11460803354,123413,1168891,11460803354,123378,1168627,11460803354,123373,1168747,11460803354,123356,1168405,11460803354,123434,1168179,11460803354,123386,1168491,11460803354,123378,1168588,11460803354,123318,1168366,11460803354,123361,1168576,11460803354,123365,1168810,11460803354,123373,1168503,11460803354,123271,1168277,11460803354,123288,1168106,11460803354,123293,1167765,11460803354,123271,1167880,11460803354,123233,1168320,11460803354,123233,1168320,11460803354,123225,1168213,11460803354,123276,1168400,11460803354,123276,1168400,11460803354,123246,1168123,11460803354,123225,1168537,11460803354,123263,1168226,11460803354,123263,1168089,11460803354,123271,1167833,11460803354,123242,1167581,11460803354,123280,1167454,11460803354,123199,1167735,11460803354,123280,1167569,11460803354,123157,1167884,11460803354,123229,1168707,11460803354,123229,1168707,11460803354,123263,1168588,11460803354,123314,1168785,11460803354,123305,1168648,11460803354,123288,1168891,11460803354,123301,1169194,11460803354,123310,1169024,11460803354,123327,1169369,11460803354,123327,1169369,11460803354,123327,1169241,11460803354,123348,1169045,11460803354,123237,1169011,11460803354,123310,1168836,11460803354,123344,1168755,11460803354,123404,1168976,11460803354,123365,1168785,11460803354,123396,1169105,11460803354,123493,1169727,11460803354,123493,1169727,11460803354,123468,1169706,11460803354,123523,1169996,11460803354,123549,1169826,11460803354,123574,1170248,11460803354,123557,1170550,11460803354,123646,1170461,11460803354,123651,1170504,11460803354,123612,1170290,11460803354,123608,1170260,11460803354,123629,1170086,11460803354,123788,1170380,11460803354,123669,1170090,11460803354,123715,1170397,11460803354,123591,1170584,11460803354,123663,1170290,11460803354,123617,1170478,11460803354,123608,1170649,11460803354,123690,1170465,11460803354,123625,1170572,11460803354,123587,1170764,11460803354,123617,1170320,11460803354,123600,1170542,11460803354,123498,1170448,11460803354,123574,1170580,11460803354,123540,1170167,11460803354,123515,1169702,11460803354,123481,1169446,11460803354,123442,1169032,11460803354,123459,1169288,11460803354,123485,1169096,11460803354,123438,1169228,11460803354,123369,1169348,11460803354,123417,1169130,11460803354,123331,1169219,11460803354,123297,1169407,11460803354,123297,1169407,11460803354,123430,1169407,11460803354,123310,1169075,11460803354,123297,1168955,11460803354,123318,1168635,11460803354,123161,1168495,11460803354,123208,1168209,11460803354,123267,1168405,11460803354,123280,1168707,11460803354,123288,1168542,11460803354,123263,1168759,11460803354,123348,1168912,11460803354,123152,1168648,11460803354,123117,1168900,11460803354,123220,1168986,11460803354,123220,1168827,11460803354,123297,1169058,11460803354,123297,1169058,11460803354,123250,1169079,11460803354,123169,1168639,11460803354,123208,1168785,11460803354,123242,1168525,11460803354,123263,1168725,11460803354,123250,1168857,11460803354,123216,1168635,11460803354,123208,1168853,11460803354,123169,1169113,11460803354,123199,1168721,11460803354,123199,1169147,11460803354,123152,1169327,11460803354,123246,1169177,11460803354,123216,1169578,11460803354,123220,1169702,11460803354,123305,1169890,11460803354,123254,1169625,11460803354,123254,1169386,11460803354,123288,1169259,11460803354,123263,1169071,11460803354,123246,1168904,11460803354,123271,1168725,11460803354,123225,1169020,11460803354,123322,1169249,11460803354,123288,1169062,11460803354,123382,1169382,11460803354,123301,1169693,11460803354,123356,1169557,11460803354,123442,1169770,11460803354,123396,1169924,11460803354,123339,1169834,11460803354,123348,1170141,11460803354,123310,1170461,11460803354,123421,1170167,11460803354,123390,1170043,11460803354,123400,1170013,11460803354,123442,1169672,11460803354,123438,1169454,11460803354,123481,1169731,11460803354,123382,1169497,11460803354,123421,1169830,11460803354,123527,1170060,11460803354,123566,1169936,11460803354,123629,1170205,11460803354,123502,1170410,11460803354,123591,1170141,11460803354,123510,1170116,11460803354,123612,1169949,11460803354,123634,1169761,11460803354,123561,1169566,11460803354,123570,1169651,11460803354,123642,1169276,11460803354,123587,1169488,11460803354,123617,1169549,11460803354,123591,1169318,11460803354,123553,1169488,11460803354,123489,1169608,11460803354,123459,1169301,11460803354,123455,1169348,11460803354,123451,1169458,11460803354,123413,1169164,11460803354,123339,1169185,11460803354,123361,1169318,11460803354,123331,1168963,11460803354,123413,1168580,11460803354,123288,1168106,11460803354,123288,1167932,11460803354,123276,1167513,11460803354,123250,1167748,11460803354,123305,1167296,11460803354,123246,1167689,11460803354,123242,1167884,11460803354,123284,1167667,11460803354,123318,1167829,11460803354,123225,1167898,11460803354,123165,1167638,11460803354,123259,1167650,11460803354,123267,1167859,11460803354,123195,1167629,11460803354,123212,1167680,11460803354,123199,1167795,11460803354,123191,1167646,11460803354,123165,1167386,11460803354,123225,1167240,11460803354,123220,1167006,11460803354,123117,1166733,11460803354,123212,1166861,11460803354,123191,1166665,11460803354,123225,1166853,11460803354,123157,1167206,11460803354,123191,1167010,11460803354,123225,1167253,11460803354,123233,1167475,11460803354,123267,1167321,11460803354,123237,1167569,11460803354,123271,1167906,11460803354,123254,1167629,11460803354,123233,1167710,11460803354,123250,1167518,11460803354,123237,1167348,11460803354,123305,1167240,11460803354,123361,1166955,11460803354,123322,1166882,11460803354,123434,1166652,11460803354,123386,1166853,11460803354,123314,1166677,11460803354,123352,1166989,11460803354,123404,1167313,11460803354,123382,1167172,11460803354,123434,1167488,11460803354,123430,1167676,11460803354,123430,1167655,11460803354,123519,1167411,11460803354,123583,1167590,11460803354,123502,1167471,11460803354,123515,1167356,11460803354,123587,1167684,11460803354,123617,1167693,11460803354,123608,1168081,11460803354,123540,1168392,11460803354,123587,1168417,11460803354,123612,1168520,11460803354,123749,1168972,11460803354,123681,1168972,11460803354,123754,1169236,11460803354,123771,1169557,11460803354,123732,1169488,11460803354,123805,1169761,11460803354,123805,1169553,11460803354,123868,1169382,11460803354,123847,1169259,11460803354,123800,1169156,11460803354,123788,1168942,11460803354,123813,1169160,11460803354,123902,1169497,11460803354,123792,1169365,11460803354,123868,1169809,11460803354,123834,1169894,11460803354,123788,1169702,11460803354,123775,1169932,11460803354,123754,1170137,11460803354,123796,1169787,11460803354,123809,1170038,11460803354,123758,1170231,11460803354,123754,1169915,11460803354,123788,1169549,11460803354,123741,1169185,11460803354,123669,1168874,11460803354,123655,1169134,11460803354,123720,1169378,11460803354,123737,1169164,11460803354,123715,1169224,11460803354,123694,1169505,11460803354,123673,1169139,11460803354,123570,1169267,11460803354,123612,1169403,11460803354,123681,1169232,11460803354,123595,1169441,11460803354,123608,1169608,11460803354,123570,1169352,11460803354,123557,1169536,11460803354,123566,1169587,11460803354,123493,1169356,11460803354,123510,1169062,11460803354,123540,1168819,11460803354,123625,1168580,11460803354,123540,1168354,11460803354,123523,1168652,11460803354,123472,1168354,11460803354,123549,1168759,11460803354,123523,1168951,11460803354,123561,1168656,11460803354,123523,1168917,11460803354,123498,1169202,11460803354,123523,1169024,11460803354,123544,1168747,11460803354,123578,1168597,11460803354,123561,1168188,11460803354,123557,1168017,11460803354,123595,1168192,11460803354,123549,1168115,11460803354,123540,1168243,11460803354,123587,1168605,11460803354,123566,1168426,11460803354,123570,1168810,11460803354,123540,1168951,11460803354,123540,1168747,11460803354,123634,1168917,11460803354,123617,1169122,11460803354,123540,1168874,11460803354,123604,1169126,11460803354,123642,1169139,11460803354,123642,1169045,11460803354,123578,1168793,11460803354,123566,1168597,11460803354,123642,1168542,11460803354,123549,1168844,11460803354,123642,1169122,11460803354,123673,1168951,11460803354,123608,1169194,11460803354,123651,1169122,11460803354,123694,1168963,11460803354,123651,1169263,11460803354,123715,1169446,11460803354,123737,1169348,11460803354,123762,1169595,11460803354,123813,1169975,11460803354,123783,1169839,11460803354,123834,1170004,11460803354,123860,1169770,11460803354,123851,1169608,11460803354,123856,1169544,11460803354,123851,1169446,11460803354,123915,1169236,11460803354,123792,1169378,11460803354,123898,1169139,11460803354,123919,1169032,11460803354,123771,1169297,11460803354,123779,1169587,11460803354,123775,1169344,11460803354,123809,1169484,11460803354,123762,1169634,11460803354,123720,1169407,11460803354,123771,1169748,11460803354,123698,1169809,11460803354,123638,1169331,11460803354,123694,1168963,11460803354,123707,1168627,11460803354,123677,1168298,11460803354,123591,1168008,11460803354,123591,1168081,11460803354,123498,1167863,11460803354,123510,1168127,11460803354,123459,1168400,11460803354,123570,1168136,11460803354,123510,1168362,11460803354,123519,1168563,11460803354,123455,1168281,11460803354,123510,1168478,11460803354,123396,1168422,11460803354,123417,1168110,11460803354,123400,1167919,11460803354,123331,1167607,11460803354,123335,1167356,11460803354,123229,1167799,11460803354,123425,1167911,11460803354,123425,1167911,11460803354,123344,1167825,11460803354,123373,1167979,11460803354,123373,1167979,11460803354,123339,1168140,11460803354,123314,1168286,11460803354,123314,1168286,11460803354,123331,1168115,11460803354,123267,1168269,11460803354,123339,1168102,11460803354,123305,1167829,11460803354,123314,1167603,11460803354,123284,1167206,11460803354,123314,1167057,11460803354,123280,1167352,11460803354,123305,1167018,11460803354,123242,1167266,11460803354,123386,1167556,11460803354,123237,1167300,11460803354,123348,1167577,11460803354,123361,1167791,11460803354,123327,1167761,11460803354,123263,1167940,11460803354,123352,1168171,11460803354,123365,1167915,11460803354,123339,1168264,11460803354,123425,1168196,11460803354,123404,1168085,11460803354,123408,1167710,11460803354,123451,1167615,11460803354,123369,1167505,11460803354,123447,1167168,11460803354,123438,1167594,11460803354,123417,1167492,11460803354,123447,1167748,11460803354,123481,1168123,11460803354,123390,1167915,11460803354,123400,1168171,11460803354,123451,1168533,11460803354,123489,1168320,11460803354,123481,1168648,11460803354,123464,1168942,11460803354,123510,1168904,11460803354,123510,1168904,11460803354,123540,1168713,11460803354,123489,1168508,11460803354,123570,1168422,11460803354,123459,1168567,11460803354,123493,1168341,11460803354,123493,1168601,11460803354,123438,1168707,11460803354,123421,1168499,11460803354,123390,1168559,11460803354,123331,1168601,11460803354,123455,1168559,11460803354,123369,1168281,11460803354,123327,1168102,11460803354,123335,1167932,11460803354,123305,1167581,11460803354,123301,1167304,11460803354,123280,1166831,11460803354,123157,1166605,11460803354,123208,1166775,11460803354,123233,1166519,11460803354,123242,1166699,11460803354,123195,1166989,11460803354,123195,1166784,11460803354,123135,1166916,11460803354,123105,1167143,11460803354,123161,1166823,11460803354,123105,1167121,11460803354,123049,1167291,11460803354,123123,1167121,11460803354,123123,1167044,11460803354,123062,1167151,11460803354,123113,1166827,11460803354,123113,1166443,11460803354,123032,1166443,11460803354,123041,1166123,11460803354,123131,1166277,11460803354,123058,1166460,11460803354,123045,1166294,11460803354,123011,1166400,11460803354,123123,1166652,11460803354,123037,1166417,11460803354,123045,1166728,11460803354,123028,1166967,11460803354,123007,1166665,11460803354,123015,1166861,11460803354,123045,1167202,11460803354,123045,1167202,11460803354,123015,1167424,11460803354,123049,1167023,11460803354,123028,1167300,11460803354,123088,1166942,11460803354,123049,1167223,11460803354,123140,1166895,11460803354,123003,1167177,11460803354,123024,1167420,11460803354,123079,1167134,11460803354,123011,1167325,11460803354,123144,1167526,11460803354,123049,1167399,11460803354,123049,1167718,11460803354,123062,1168021,11460803354,123079,1167701,11460803354,123092,1167744,11460803354,123152,1167987,11460803354,123157,1167740,11460803354,123199,1167496,11460803354,123203,1167598,11460803354,123220,1167467,11460803354,123233,1167752,11460803354,123203,1168171,11460803354,123242,1167996,11460803354,123178,1168119,11460803354,123199,1168379,11460803354,123229,1168136,11460803354,123178,1168218,11460803354,123212,1168294,11460803354,123178,1168076,11460803354,123195,1168324,11460803354,123178,1168516,11460803354,123165,1168064,11460803354,123131,1167667,11460803354,123113,1167352,11460803354,123024,1167014,11460803354,123041,1166550,11460803354,123037,1166588,11460803354,123020,1166294,11460803354,122994,1166489,11460803354,122960,1166720,11460803354,122969,1166396,11460803354,122926,1166383,11460803354,122871,1166434,11460803354,122892,1166038,11460803354,122867,1165956,11460803354,122871,1165602,11460803354,122905,1165172,11460803354,122781,1164839,11460803354,122785,1165048,11460803354,122836,1164608,11460803354,122764,1164813,11460803354,122802,1164860,11460803354,122827,1164587,11460803354,122793,1164783,11460803354,122738,1165103,11460803354,122738,1164783,11460803354,122755,1164830,11460803354,122798,1165039,11460803354,122662,1164805,11460803354,122674,1164980,11460803354,122708,1164868,11460803354,122666,1164895,11460803354,122747,1164715,11460803354,122653,1164908,11460803354,122615,1164608,11460803354,122581,1164152,11460803354,122615,1164476,11460803354,122581,1164293,11460803354,122619,1164578,11460803354,122628,1164673,11460803354,122577,1164425,11460803354,122554,1164549,11460803354,122559,1164578,11460803354,122683,1164362,11460803354,122636,1164314,11460803354,122653,1164583,11460803354,122615,1164379,11460803354,122615,1164379,11460803354,122704,1164049,11460803354,122679,1163875,11460803354,122734,1163657,11460803354,122708,1163577,11460803354,122670,1163414,11460803354,122713,1163538,11460803354,122683,1163956,11460803354,122700,1163811,11460803354,122730,1164076,11460803354,122730,1164353,11460803354,122713,1164280,11460803354,122751,1164502,11460803354,122704,1164805,11460803354,122696,1164698,11460803354,122708,1164963,11460803354,122776,1165206,11460803354,122789,1165052,11460803354,122844,1164895,11460803354,122751,1164720,11460803354,122819,1164549,11460803354,122832,1164707,11460803354,122806,1165065,11460803354,122823,1164737,11460803354,122776,1164796,11460803354,122840,1164954,11460803354,122708,1164544,11460803354,122755,1164669,11460803354,122776,1164809,11460803354,122628,1164506,11460803354,122662,1164408,11460803354,122594,1163973,11460803354,122725,1163606,11460803354,122559,1163090,11460803354,122589,1162732,11460803354,122585,1162416,11460803354,122516,1162497,11460803354,122589,1162697,11460803354,122508,1162360,11460803354,122465,1162463,11460803354,122380,1162625,11460803354,122537,1162399,11460803354,122499,1162472,11460803354,122512,1162724,11460803354,122406,1162399,11460803354,122465,1162420,11460803354,122406,1162676,11460803354,122376,1162258,11460803354,122376,1161985,11460803354,122342,1161588,11460803354,122380,1161315,11460803354,122376,1161038,11460803354,122308,1161268,11460803354,122376,1161086,11460803354,122235,1161336,11460803354,122355,1161563,11460803354,122312,1161192,11460803354,122290,1161393,11460803354,122196,1161580,11460803354,122298,1161285,11460803354,122333,1161490,11460803354,122329,1161776,11460803354,122338,1161363,11460803354,122222,1161558,11460803354,122252,1161797,11460803354,122230,1161503,11460803354,122256,1161294,11460803354,122252,1161051,11460803354,122298,1160953,11460803354,122252,1161247,11460803354,122269,1161627,11460803354,122264,1161380,11460803354,122308,1161615,11460803354,122286,1161973,11460803354,122350,1161712,11460803354,122350,1161985,11460803354,122286,1162292,11460803354,122363,1162058,11460803354,122397,1162360,11460803354,122410,1162753,11460803354,122346,1162502,11460803354,122486,1162565,11460803354,122316,1162318,11460803354,122418,1162182,11460803354,122414,1161956,11460803354,122520,1161848,11460803354,122546,1161661,11460803354,122495,1161973,11460803354,122594,1162348,11460803354,122577,1162190,11460803354,122571,1162519,11460803354,122589,1163014,11460803354,122594,1162667,11460803354,122585,1162962,11460803354,122683,1163001,11460803354,122606,1162851,11460803354,122598,1162604,11460803354,122550,1162390,11460803354,122559,1162544,11460803354,122533,1162284,11460803354,122533,1161905,11460803354,122457,1161418,11460803354,122499,1161584,11460803354,122452,1161772,11460803354,122478,1161439,11460803354,122418,1161520,11460803354,122457,1161649,11460803354,122393,1161268,11460803354,122367,1161363,11460803354,122329,1161469,11460803354,122363,1161086,11460803354,122333,1160932,11460803354,122316,1160667,11460803364,122359,1160322,21460803364,122264,1159942,21460803364,122277,1160100,21460803364,122235,1159818,21460803364,122260,1159989,21460803364,122235,1160134,21460803364,122222,1159886,21460803364,122252,1160198,21460803364,122103,1160377,21460803364,122171,1160083,21460803364,122150,1160356,21460803364,122073,1160582,21460803364,122082,1160322,21460803364,122082,1160586,21460803364,122094,1160790,21460803364,122128,1160407,21460803364,122171,1160113,21460803364,122031,1159694,21460803364,121991,1159469,21460803364,122103,1159029,21460803364,122048,1159366,21460803364,122128,1159213,21460803364,122082,1159349,21460803364,122065,1159643,21460803364,122060,1159413,21460803364,122103,1159763,21460803364,122035,1159977,21460803364,122082,1159801,21460803364,122043,1160062,21460803364,122060,1160339,21460803364,122133,1160117,21460803364,122116,1160262,21460803364,122209,1160595,21460803364,122099,1160326,21460803364,122145,1159920,21460803364,122116,1159746,21460803364,122167,1159443,21460803364,122230,1159247,21460803364,122235,1159554,21460803364,122171,1159465,21460803364,122141,1159806,21460803364,122230,1160032,21460803364,122209,1159977,21460803364,122239,1160258,21460803364,122184,1160569,21460803364,122209,1160574,21460803364,122209,1160574,21460803364,122239,1160407,21460803364,122277,1160313,21460803364,122298,1160360,21460803364,122243,1160667,21460803364,122243,1160667,21460803364,122175,1160936,21460803364,122338,1161213,21460803364,122338,1161213,21460803364,122226,1161281,21460803364,122286,1161623,21460803364,122286,1161623,21460803364,122290,1161763,21460803364,122325,1161930,21460803364,122325,1161930,21460803364,122252,1161619,21460803364,122230,1161857,21460803364,122281,1161427,21460803364,122230,1161107,21460803364,122342,1160808,21460803364,122226,1160428,21460803364,122256,1160151,21460803364,122247,1160172,21460803364,122158,1159810,21460803364,122107,1159558,21460803364,122145,1159425,21460803364,122133,1159306,21460803364,122056,1159012,21460803364,122120,1159144,21460803364,122137,1159046,21460803364,122141,1159106,21460803364,122086,1159183,21460803364,122025,1158893,21460803364,122025,1158893,21460803364,122031,1159067,21460803364,122004,1158820,21460803364,121957,1158394,21460803364,121966,1158193,21460803364,121957,1158458,21460803364,122043,1158236,21460803364,122008,1158547,21460803364,121936,1158343,21460803364,121991,1158462,21460803364,122065,1158820,21460803364,122086,1158598,21460803364,122025,1158667,21460803364,122013,1158999,21460803364,121996,1158790,21460803364,122065,1158991,21460803364,121974,1159251,21460803364,121974,1159251,21460803364,122043,1159021,21460803364,122035,1158701,21460803364,122052,1158487,21460803364,122069,1158223,21460803364,122056,1158390,21460803364,122082,1158282,21460803364,122043,1158475,21460803364,122048,1158811,21460803364,122056,1158705,21460803364,121996,1158931,21460803364,121991,1159209,21460803364,122120,1158879,21460803364,122120,1158879,21460803364,122094,1159200,21460803364,122158,1158965,21460803364,122158,1158961,21460803364,122111,1158654,21460803364,122133,1158620,21460803364,122171,1158902,21460803364,122179,1159131,21460803364,122188,1159004,21460803364,122154,1159443,21460803364,122154,1159869,21460803364,122269,1159605,21460803364,122201,1159998,21460803364,122286,1160130,21460803364,122312,1159929,21460803364,122256,1160296,21460803364,122376,1160765,21460803364,122376,1160765,21460803364,122372,1161046,21460803364,122384,1160915,21460803364,122355,1161069,21460803364,122346,1160940,21460803364,122333,1160842,21460803364,122298,1160608,21460803364,122401,1160923,21460803364,122333,1161166,21460803364,122401,1160944,21460803364,122414,1161183,21460803364,122440,1161359,21460803364,122393,1161141,21460803364,122444,1161384,21460803364,122418,1161520,21460803364,122444,1161063,21460803364,122333,1161260,21460803364,122312,1161081,21460803364,122312,1160705,21460803364,122372,1160415,21460803364,122304,1160006,21460803364,122281,1159742,21460803364,122298,1159784,21460803364,122201,1160006,21460803364,122154,1159588,21460803364,122260,1159677,21460803364,122247,1159780,21460803364,122209,1159425,21460803364,122201,1159528,21460803364,122213,1159647,21460803364,122179,1159328,21460803364,122073,1159533,21460803364,122137,1159596,21460803364,122086,1159127,21460803364,122086,1159127,21460803364,122086,1159255,21460803364,122120,1159004,21460803364,122025,1158961,21460803364,122060,1159025,21460803364,122073,1158680,21460803364,122025,1158773,21460803364,122107,1158875,21460803364,122158,1158705,21460803364,122086,1158837,21460803364,121991,1159042,21460803364,122099,1158731,21460803364,122039,1158364,21460803364,122039,1158364,21460803364,121996,1158343,21460803364,121996,1158210,21460803364,122000,1158299,21460803364,121970,1158373,21460803364,122073,1158496,21460803364,121936,1158629,21460803364,121979,1158270,21460803364,122025,1158543,21460803364,122039,1158769,21460803364,122025,1158867,21460803364,122099,1159067,21460803364,122056,1159260,21460803364,122043,1158867,21460803364,122008,1159029,21460803364,122082,1159353,21460803364,122141,1159110,21460803364,122141,1158824,21460803364,122154,1158978,21460803364,122192,1159289,21460803364,122175,1159516,21460803364,122209,1159708,21460803364,122218,1159435,21460803364,122184,1159725,21460803364,122273,1160011,21460803364,122230,1159797,21460803364,122264,1160070,21460803364,122350,1160390,21460803364,122256,1160147,21460803364,122304,1160479,21460803364,122281,1160808,21460803364,122346,1160509,21460803364,122376,1160731,21460803364,122384,1160936,21460803364,122406,1160731,21460803364,122461,1160496,21460803364,122461,1160301,21460803364,122406,1160138,21460803364,122486,1159886,21460803364,122444,1160172,21460803364,122457,1159985,21460803364,122585,1160104,21460803364,122529,1160185,21460803364,122499,1159835,21460803364,122499,1159971,21460803364,122491,1160074,21460803364,122512,1159848,21460803364,122503,1159903,21460803364,122533,1159874,21460803364,122508,1159520,21460803364,122482,1159524,21460803364,122435,1159592,21460803364,122423,1159277,21460803364,122427,1159114,21460803364,122406,1158641,21460803364,122393,1158299,21460803364,122380,1157988,21460803364,122321,1158048,21460803364,122222,1157797,21460803364,122308,1157805,21460803364,122329,1157856,21460803364,122286,1157528,21460803364,122256,1157707,21460803364,122294,1157827,21460803364,122218,1157485,21460803364,122222,1157122,21460803364,122196,1156803,21460803364,122243,1156627,21460803364,122209,1156670,21460803364,122264,1156909,21460803364,122213,1156572,21460803364,122179,1156960,21460803364,122201,1157122,21460803364,122179,1156862,21460803364,122179,1157016,21460803364,122192,1157182,21460803364,122213,1156986,21460803364,122188,1157310,21460803364,122205,1157502,21460803364,122218,1157251,21460803364,122171,1157315,21460803364,122128,1157298,21460803364,122128,1157298,21460803364,122196,1157076,21460803364,122154,1156661,21460803364,122222,1156422,21460803364,122192,1156376,21460803364,122273,1156547,21460803364,122213,1156261,21460803364,122188,1156678,21460803364,122247,1156951,21460803364,122269,1156701,21460803364,122218,1157033,21460803364,122196,1157353,21460803364,122196,1157182,21460803364,122209,1157562,21460803364,122290,1157715,21460803364,122213,1157681,21460803364,122213,1157681,21460803364,122333,1157617,21460803364,122316,1157583,21460803364,122312,1157442,21460803364,122308,1157455,21460803364,122367,1157801,21460803364,122329,1157732,21460803364,122333,1157937,21460803364,122372,1157929,21460803364,122355,1158299,21460803364,122380,1158496,21460803364,122389,1158385,21460803364,122440,1158445,21460803364,122384,1158816,21460803364,122529,1158709,21460803364,122448,1159042,21460803364,122444,1159298,21460803364,122516,1159192,21460803364,122571,1159170,21460803364,122542,1159072,21460803364,122444,1158906,21460803364,122508,1159332,21460803364,122567,1159524,21460803364,122628,1159490,21460803364,122653,1159895,21460803364,122636,1160381,21460803364,122696,1160326,21460803364,122759,1160680,21460803364,122708,1161145,21460803364,122802,1161055,21460803364,122747,1161145,21460803364,122810,1161077,21460803364,122815,1160796,21460803364,122798,1160608,21460803364,122789,1160301,21460803364,122798,1160130,21460803364,122819,1160360,21460803364,122785,1160574,21460803364,122806,1160339,21460803364,122806,1160693,21460803364,122751,1160796,21460803364,122751,1160523,21460803364,122717,1160578,21460803364,122700,1160642,21460803364,122717,1160335,21460803364,122683,1160403,21460803364,122649,1160552,21460803364,122674,1160305,21460803364,122585,1159954,21460803364,122606,1159660,21460803364,122628,1159482,21460803364,122516,1159127,21460803364,122585,1159264,21460803364,122478,1159063,21460803364,122529,1159127,21460803364,122482,1159383,21460803364,122537,1159076,21460803364,122611,1159289,21460803364,122482,1159486,21460803364,122520,1159289,21460803364,122478,1159404,21460803364,122503,1159698,21460803364,122440,1159345,21460803364,122482,1159545,21460803364,122495,1159362,21460803364,122465,1159298,21460803364,122444,1158991,21460803364,122499,1158820,21460803364,122474,1158581,21460803364,122503,1158803,21460803364,122577,1158931,21460803364,122503,1158667,21460803364,122389,1158799,21460803364,122397,1159072,21460803364,122495,1158777,21460803364,122503,1158974,21460803364,122482,1159097,21460803364,122559,1158944,21460803364,122503,1159255,21460803364,122474,1159520,21460803364,122520,1159152,21460803364,122448,1159345,21460803364,122469,1159101,21460803364,122589,1158824,21460803364,122567,1158680,21460803364,122577,1158364,21460803364,122567,1158257,21460803364,122581,1158517,21460803364,122585,1158889,21460803364,122602,1158667,21460803364,122640,1158910,21460803364,122598,1159183,21460803364,122533,1159067,21460803364,122662,1159353,21460803364,122687,1159626,21460803364,122683,1159537,21460803364,122691,1159882,21460803364,122717,1160219,21460803364,122734,1160125,21460803364,122734,1159869,21460803364,122742,1159852,21460803364,122759,1159579,21460803364,122844,1159370,21460803364,122827,1159742,21460803364,122854,1159630,21460803364,122806,1159916,21460803364,122884,1160206,21460803364,122918,1160121,21460803364,123003,1160893,21460803364,123028,1161217,21460803364,122913,1161166,21460803364,122913,1161012,21460803364,122905,1160974,21460803364,122947,1160983,21460803364,123045,1161098,21460803364,123041,1161524,21460803364,123041,1161524,21460803364,122998,1161461,21460803364,123096,1162130,21460803364,123096,1162130,21460803364,123117,1161990,21460803364,123075,1162297,21460803364,123178,1162510,21460803364,123178,1162510,21460803364,123169,1162779,21460803364,123157,1162707,21460803364,123225,1162779,21460803364,123216,1162557,21460803364,123165,1162485,21460803364,123271,1162165,21460803364,123199,1161939,21460803364,123220,1161657,21460803364,123062,1161878,21460803364,123169,1162178,21460803364,123109,1161827,21460803364,123071,1162100,21460803364,122998,1162267,21460803364,123096,1161888,21460803364,123015,1161905,21460803364,122977,1162070,21460803364,123028,1161776,21460803364,123054,1161973,21460803364,122990,1162195,21460803364,122990,1162195,21460803364,123062,1161947,21460803364,123049,1161580,21460803364,123028,1161141,21460803364,122939,1160868,21460803364,123007,1160663,21460803364,122994,1160343,21460803364,122926,1160527,21460803364,122973,1160761,21460803364,122905,1160513,21460803364,122935,1160616,21460803364,122952,1161055,21460803364,122854,1160752,21460803364,122930,1160910,21460803364,123003,1161094,21460803364,122939,1160773,21460803364,122964,1160957,21460803364,122926,1161081,21460803364,122956,1160744,21460803364,122994,1160561,21460803364,122990,1160360,21460803364,122973,1160108,21460803364,123020,1160492,21460803364,122884,1160718,21460803364,122947,1160595,21460803364,122956,1160800,21460803364,122973,1161086,21460803364,122930,1160898,21460803364,122896,1161145,21460803364,122926,1161516,21460803364,122892,1161674,21460803364,122981,1161456,21460803364,122998,1161213,21460803364,122960,1160902,21460803364,122998,1160684,21460803364,123041,1161004,21460803364,123066,1160790,21460803364,123100,1161120,21460803364,123071,1161439,21460803364,123100,1161302,21460803364,123071,1161503,21460803364,123117,1161814,21460803364,123148,1161687,21460803364,123092,1161968,21460803364,123157,1162195,21460803364,123208,1162292,21460803364,123208,1162292,21460803364,123199,1162480,21460803364,123288,1162339,21460803364,123276,1162199,21460803364,123314,1162254,21460803364,123335,1162083,21460803364,123305,1162369,21460803364,123297,1162864,21460803364,123327,1162667,21460803364,123352,1163179,21460803364,123378,1163482,21460803364,123297,1163333,21460803364,123386,1163141,21460803364,123348,1163534,21460803364,123365,1163452,21460803364,123408,1163640,21460803364,123485,1164032,21460803364,123485,1164032,21460803364,123468,1164335,21460803364,123425,1164310,21460803364,123544,1164072,21460803364,123544,1164297,21460803364,123595,1164259,21460803364,123523,1163960,21460803364,123600,1164271,21460803364,123587,1164728,21460803364,123681,1164379,21460803364,123646,1164694,21460803364,123634,1165005,21460803364,123557,1164707,21460803364,123612,1164984,21460803364,123608,1165189,21460803364,123634,1164976,21460803364,123540,1165206,21460803364,123540,1165141,21460803364,123515,1165172,21460803364,123583,1165236,21460803364,123536,1165321,21460803364,123578,1165304,21460803364,123536,1165206,21460803364,123540,1165249,21460803364,123510,1164942,21460803364,123421,1165193,21460803364,123485,1165329,21460803364,123472,1165082,21460803364,123481,1165189,21460803364,123408,1165402,21460803364,123378,1165133,21460803364,123451,1165253,21460803364,123438,1165530,21460803364,123434,1165185,21460803364,123434,1164843,21460803364,123421,1165031,21460803364,123451,1165232,21460803364,123434,1164929,21460803364,123485,1164822,21460803364,123481,1164438,21460803364,123373,1164720,21460803364,123430,1164916,21460803364,123390,1164578,21460803364,123417,1164792,21460803364,123455,1164942,21460803364,123430,1164643,21460803364,123369,1164749,21460803364,123369,1164498,21460803364,123356,1164656,21460803364,123327,1164246,21460803364,123421,1164408,21460803364,123459,1164220,21460803364,123369,1164339,21460803364,123400,1164557,21460803364,123430,1164374,21460803364,123421,1164532,21460803364,123396,1164707,21460803364,123356,1164519,21460803364,123396,1164809,21460803364,123408,1164912,21460803364,123322,1164732,21460803364,123536,1164967,21460803364,123417,1165176,21460803364,123459,1165124,21460803364,123459,1165124,21460803364,123506,1164800,21460803364,123476,1164600,21460803364,123459,1164374,21460803364,123532,1164089,21460803364,123570,1163918,21460803364,123570,1164131,21460803364,123578,1164322,21460803364,123642,1164157,21460803364,123646,1164301,21460803364,123583,1164451,21460803364,123604,1164339,21460803364,123621,1164455,21460803364,123570,1164523,21460803364,123638,1164374,21460803364,123621,1164669,21460803364,123686,1164724,21460803364,123686,1164626,21460803364,123638,1164656,21460803364,123659,1164459,21460803364,123779,1164391,21460803364,123737,1164297,21460803364,123715,1164476,21460803364,123724,1164425,21460803364,123745,1164349,21460803364,123754,1164707,21460803364,123758,1164630,21460803364,123800,1164920,21460803364,123860,1165257,21460803364,123813,1165099,21460803364,123898,1165274,21460803364,123911,1165312,21460803364,123847,1165099,21460803364,123851,1165210,21460803364,123911,1165082,21460803364,123864,1164937,21460803364,123911,1164817,21460803364,123915,1165164,21460803364,123911,1164805,21460803364,123959,1164860,21460803364,123868,1165141,21460803364,123796,1164817,21460803364,123847,1164963,21460803364,123762,1165249,21460803364,123715,1165035,21460803364,123817,1165249,21460803364,123826,1165283,21460803364,123826,1165099,21460803364,123745,1164839,21460803364,123663,1164626,21460803364,123604,1164327,21460803364,123677,1164066,21460803364,123698,1164276,21460803364,123617,1164037,21460803364,123655,1164345,21460803364,123634,1164536,21460803364,123612,1164212,21460803364,123642,1164442,21460803364,123600,1164595,21460803364,123583,1164327,21460803364,123527,1164493,21460803364,123498,1164652,21460803364,123557,1164464,21460803364,123557,1164464,21460803364,123476,1164084,21460803364,123464,1163824,21460803364,123493,1163568,21460803364,123396,1163111,21460803364,123361,1162923,21460803364,123485,1163162,21460803364,123468,1163350,21460803364,123451,1163145,21460803364,123544,1163389,21460803364,123408,1163516,21460803364,123481,1163235,21460803364,123396,1163478,21460803364,123430,1163738,21460803364,123447,1163564,21460803364,123451,1163896,21460803364,123425,1164195,21460803364,123464,1163986,21460803364,123417,1163742,21460803364,123417,1163495,21460803364,123451,1163274,21460803364,123425,1163526,21460803364,123400,1163781,21460803364,123459,1163640,21460803364,123493,1163892,21460803364,123430,1164041,21460803364,123510,1163909,21460803364,123442,1164195,21460803364,123527,1164506,21460803364,123493,1164331,21460803364,123468,1164532,21460803364,123489,1164741,21460803364,123502,1164600,21460803364,123442,1164929,21460803364,123468,1165078,21460803364,123523,1164843,21460803364,123510,1164643,21460803364,123523,1164408,21460803364,123544,1164271,21460803364,123523,1164080,21460803364,123510,1164434,21460803364,123673,1164208,21460803364,123527,1164553,21460803364,123570,1165005,21460803364,123587,1164976,21460803364,123621,1165164,21460803364,123686,1165522,21460803364,123681,1165568,21460803364,123651,1165824,21460803364,123732,1166080,21460803364,123698,1165897,21460803364,123711,1165973,21460803364,123694,1165756,21460803364,123749,1165437,21460803364,123737,1165261,21460803364,123711,1165069,21460803364,123707,1164766,21460803364,123749,1164997,21460803364,123686,1165304,21460803364,123673,1165082,21460803364,123703,1165287,21460803364,123651,1165475,21460803364,123651,1165227,21460803364,123617,1165368,21460803364,123583,1165334,21460803364,123566,1164993,21460803364,123515,1164639,21460803364,123468,1164523,21460803364,123425,1164140,21460803364,123481,1163781,21460803364,123451,1164080,21460803364,123451,1163636,21460803364,123396,1163888,21460803364,123425,1163930,21460803364,123314,1163734,21460803364,123378,1163295,21460803364,123318,1163526,21460803364,123254,1163196,21460803364,123301,1163452,21460803364,123280,1163512,21460803364,123284,1163205,21460803364,123271,1163253,21460803364,123310,1162847,21460803364,123165,1162489,21460803364,123131,1162297,21460803364,123105,1161951,21460803364,123169,1161657,21460803364,123088,1161810,21460803364,123071,1162041,21460803364,123092,1161865,21460803364,123062,1161939,21460803364,123105,1162155,21460803364,123020,1161981,21460803364,123071,1162062,21460803364,122973,1162186,21460803364,123100,1162053,21460803364,123062,1162263,21460803364,123003,1162540,21460803364,122990,1162237,21460803364,122990,1162028,21460803364,122926,1161776,21460803364,122960,1161478,21460803364,122977,1161205,21460803364,123049,1161380,21460803364,123028,1161132,21460803364,122947,1161452,21460803364,122935,1161785,21460803364,122986,1161913,21460803364,122994,1162182,21460803364,123003,1162536,21460803364,122913,1162292,21460803364,123011,1162728,21460803364,122922,1163039,21460803364,122888,1162800,21460803364,122888,1162655,21460803364,122947,1162565,21460803364,122947,1162565,21460803364,122922,1162715,21460803364,122947,1163022,21460803364,122947,1163022,21460803364,122956,1162834,21460803364,122960,1163448,21460803364,122960,1163448,21460803364,122973,1163137,21460803364,122875,1163440,21460803364,123032,1163299,21460803364,123032,1163230,21460803364,123157,1162928,21460803364,123045,1162728,21460803364,123075,1162553,21460803364,123083,1162834,21460803364,123123,1162633,21460803364,123178,1162898,21460803364,123165,1163133,21460803364,123144,1162923,21460803364,123144,1163295,21460803364,123152,1163623,21460803364,123216,1163372,21460803364,123100,1163431,21460803364,123169,1163789,21460803364,123191,1163615,21460803364,123178,1163772,21460803364,123174,1163764,21460803364,123079,1163440,21460803364,123049,1163009,21460803364,123058,1162680,21460803364,123083,1162305,21460803364,123011,1162087,21460803364,122998,1162109,21460803364,122943,1161785,21460803364,122956,1161947,21460803364,122905,1162028,21460803364,122905,1161683,21460803364,122884,1161853,21460803364,122840,1161990,21460803364,122793,1161738,21460803364,122827,1161763,21460803364,122810,1161977,21460803364,122657,1161363,21460803364,122657,1161363,21460803364,122628,1161405,21460803364,122577,1161063,21460803364,122602,1160693,21460803364,122640,1160727,21460803364,122563,1160437,21460803364,122469,1160540,21460803364,122559,1160548,21460803364,122550,1160313,21460803364,122537,1159981,21460803364,122503,1160040,21460803364,122448,1159704,21460803364,122516,1159789,21460803364,122482,1159865,21460803364,122423,1159558,21460803364,122457,1159558,21460803364,122397,1159759,21460803364,122465,1159425,21460803364,122346,1159148,21460803364,122286,1158799,21460803364,122294,1158428,21460803364,122350,1158091,21460803364,122316,1158356,21460803364,122308,1158129,21460803364,122226,1158316,21460803364,122281,1158752,21460803364,122269,1158513,21460803364,122222,1158760,21460803364,122264,1158961,21460803364,122359,1158914,21460803364,122359,1158914,21460803364,122294,1158885,21460803364,122304,1158726,21460803364,122321,1158492,21460803364,122252,1158650,21460803364,122188,1158530,21460803364,122312,1158803,21460803364,122290,1158957,21460803364,122222,1158760,21460803364,122321,1159067,21460803364,122286,1159391,21460803364,122376,1159183,21460803364,122338,1159383,21460803364,122363,1159712,21460803364,122346,1159567,21460803364,122298,1159797,21460803364,122325,1160138,21460803364,122325,1160138,21460803364,122414,1160330,21460803364,122423,1160134,21460803364,122401,1160318,21460803364,122359,1160138,21460803364,122372,1160364,21460803364,122495,1160198,21460803364,122410,1160394,21460803364,122393,1160667,21460803364,122448,1160492,21460803364,122431,1160710,21460803364,122474,1161107,21460803364,122406,1160970,21460803364,122525,1161222,21460803364,122474,1161319,21460803364,122495,1161171,21460803364,122516,1161294,21460803364,122491,1161520,21460803364,122602,1161444,21460803364,122563,1161452,21460803364,122594,1161678,21460803364,122687,1161478,21460803364,122516,1161734,21460803364,122585,1161772,21460803364,122452,1161384,21460803364,122567,1161495,21460803364,122529,1161712,21460803364,122478,1161388,21460803364,122525,1161448,21460803364,122559,1161619,21460803364,122478,1161132,21460803364,122444,1161154,21460803364,122486,1161209,21460803364,122486,1160864,21460803364,122359,1161017,21460803364,122333,1160595,21460803364,122372,1160531,21460803364,122372,1160130,21460803364,122346,1160168,21460803364,122325,1159626,21460803364,122192,1159712,21460803364,122304,1159677,21460803364,122333,1159404,21460803364,122209,1159413,21460803364,122150,1159516,21460803364,122171,1158965,21460803364,122171,1158663,21460803364,122133,1158748,21460803364,122082,1158803,21460803364,122052,1158748,21460803364,122056,1158684,21460803364,121979,1158428,21460803364,121970,1158411,21460803364,121983,1158585,21460803364,121953,1158248,21460803364,121974,1158299,21460803364,121915,1158231,21460803364,121817,1157835,21460803364,121792,1157950,21460803364,121830,1158074,21460803364,121855,1157736,21460803364,121830,1157690,21460803364,121758,1157349,21460803364,121800,1156900,21460803364,121723,1156644,21460803364,121809,1156252,21460803364,121758,1155838,21460803364,121783,1155472,21460803364,121714,1155578,21460803364,121813,1155416,21460803364,121689,1155378,21460803364,121667,1155476,21460803364,121667,1155322,21460803364,121783,1155540,21460803364,121701,1155510,21460803364,121787,1155267,21460803364,121766,1155326,21460803364,121740,1155574,21460803364,121855,1155228,21460803364,121855,1155152,21460803364,121744,1155284,21460803364,121843,1155250,21460803364,121804,1154904,21460803364,121838,1155160,21460803364,121894,1154981,21460803364,121932,1155228,21460803364,121885,1155552,21460803364,121919,1155318,21460803364,121872,1155702,21460803364,121906,1156064,21460803364,121983,1156001,21460803364,121872,1156308,21460803364,121953,1156517,21460803364,121996,1156393,21460803364,121945,1156722,21460803364,121987,1156623,21460803364,121983,1156388,21460803364,122017,1156312,21460803364,122017,1156149,21460803364,122060,1156043,21460803364,122060,1156422,21460803364,122056,1156691,21460803364,122065,1156615,21460803364,122065,1157003,21460803364,122120,1157357,21460803364,122082,1157323,21460803364,122099,1157520,21460803364,122184,1157856,21460803364,122192,1157805,21460803364,122099,1157975,21460803364,122192,1158299,21460803364,122201,1158155,21460803364,122171,1158125,21460803364,122171,1158125,21460803364,122243,1157805,21460803364,122184,1157664,21460803364,122226,1157395,21460803364,122230,1156995,21460803364,122277,1157097,21460803364,122201,1157251,21460803364,122184,1156798,21460803364,122150,1156909,21460803364,122103,1156943,21460803364,122043,1156606,21460803364,122043,1156687,21460803364,122073,1156722,21460803364,122039,1156231,21460803364,121962,1155899,21460803364,121872,1155484,21460803364,121953,1155160,21460803364,121894,1154699,21460803364,121855,1154896,21460803364,121881,1154486,21460803364,121834,1154661,21460803364,121817,1154763,21460803364,121787,1154602,21460803364,121758,1154746,21460803364,121744,1154955,21460803364,121809,1154631,21460803364,121809,1154661,21460803364,121718,1154755,21460803364,121612,1154431,21460803364,121612,1154047,21460803364,121659,1153855,21460803364,121655,1153548,21460803364,121646,1153612,21460803364,121595,1153736,21460803364,121672,1153582,21460803364,121616,1153637,21460803364,121650,1153825,21460803364,121697,1153544,21460803364,121599,1153808,21460803364,121506,1154034,21460803364,121616,1153838,21460803364,121493,1154051,21460803364,121565,1154333,21460803364,121595,1153992,21460803364,121502,1154278,21460803364,121544,1154192,21460803364,121561,1153983,21460803364,121578,1153641,21460803364,121587,1153339,21460803364,121570,1153450,21460803364,121561,1153169,21460803364,121519,1152951,21460803364,121540,1153190,21460803364,121531,1153156,21460803364,121604,1153271,21460803364,121553,1153112,21460803364,121578,1153373,21460803364,121608,1153569,21460803364,121608,1153476,21460803364,121523,1153770,21460803364,121625,1153948,21460803364,121561,1153902,21460803364,121565,1153897,21460803364,121565,1153719,21460803364,121638,1153518,21460803364,121587,1153258,21460803364,121625,1153146,21460803374,121659,1152981,31460803374,121616,1153181,31460803374,121595,1153578,31460803374,121676,1153381,31460803374,121659,1153663,31460803374,121731,1154073,31460803374,121770,1154017,31460803374,121779,1154422,31460803374,121843,1154657,31460803374,121906,1154486,31460803374,121796,1154832,31460803374,121817,1155023,31460803374,121860,1154934,31460803374,121919,1154845,31460803374,121936,1154759,31460803374,121983,1154534,31460803374,121962,1154794,31460803374,121923,1155101,31460803374,121902,1154849,31460803374,121851,1155097,31460803374,121860,1155361,31460803374,121889,1155152,31460803374,121953,1155340,31460803374,121894,1155574,31460803374,121898,1155084,31460803374,121906,1155080,31460803374,121830,1154780,31460803374,121762,1154418,31460803374,121723,1154026,31460803374,121817,1153680,31460803374,121714,1153334,31460803374,121727,1153442,31460803374,121744,1153603,31460803374,121706,1153309,31460803374,121612,1153322,31460803374,121608,1153484,31460803374,121506,1153146,31460803374,121561,1153330,31460803374,121540,1153313,31460803374,121497,1153053,31460803374,121497,1153104,31460803374,121475,1153173,31460803374,121382,1152861,31460803374,121369,1152447,31460803374,121394,1152054,31460803374,121420,1151705,31460803374,121339,1151436,31460803374,121369,1151543,31460803374,121369,1151227,31460803374,121314,1151491,31460803374,121318,1151552,31460803374,121335,1151275,31460803374,121271,1151355,31460803374,121237,1151654,31460803374,121288,1151300,31460803374,121305,1151508,31460803374,121258,1151654,31460803374,121288,1151449,31460803374,121267,1151620,31460803374,121224,1151590,31460803374,121233,1151462,31460803374,121297,1150962,31460803374,121271,1150835,31460803374,121271,1150835,31460803374,121237,1150899,31460803374,121237,1150899,31460803374,121314,1150733,31460803374,121181,1150733,31460803374,121250,1150886,31460803374,121250,1150886,31460803374,121237,1150699,31460803374,121250,1151184,31460803374,121250,1151184,31460803374,121314,1150920,31460803374,121271,1151189,31460803374,121297,1151231,31460803374,121326,1150962,31460803374,121280,1150826,31460803374,121318,1150498,31460803374,121339,1150370,31460803374,121399,1150067,31460803374,121322,1150054,31460803374,121373,1149944,31460803374,121301,1150157,31460803374,121322,1150050,31460803374,121394,1150494,31460803374,121377,1150928,31460803374,121403,1151031,31460803374,121403,1151031,31460803374,121514,1151048,31460803374,121506,1150968,31460803374,121475,1150869,31460803374,121527,1150733,31460803374,121536,1150716,31460803374,121561,1151019,31460803374,121633,1151402,31460803374,121621,1151201,31460803374,121608,1151522,31460803374,121646,1151969,31460803374,121663,1151777,31460803374,121633,1152187,31460803374,121659,1152384,31460803374,121693,1152166,31460803374,121659,1152524,31460803374,121578,1152583,31460803374,121578,1152583,31460803374,121642,1152460,31460803374,121570,1152089,31460803374,121553,1151586,31460803374,121591,1151364,31460803374,121514,1151406,31460803374,121479,1151044,31460803374,121510,1151258,31460803374,121450,1151338,31460803374,121437,1151053,31460803374,121394,1151116,31460803374,121348,1151087,31460803374,121407,1150741,31460803374,121331,1150775,31460803374,121318,1150763,31460803374,121305,1150507,31460803374,121280,1150630,31460803374,121168,1150490,31460803374,121224,1150058,31460803374,121206,1149568,31460803374,121212,1149347,31460803374,121168,1149030,31460803374,121109,1148805,31460803374,121143,1148949,31460803374,121113,1148625,31460803374,121104,1148766,31460803374,121147,1148903,31460803374,121041,1148501,31460803374,121053,1148672,31460803374,120977,1148843,31460803374,121058,1148484,31460803374,120998,1148647,31460803374,121058,1148740,31460803374,121019,1148361,31460803374,121019,1148361,31460803374,120981,1148280,31460803374,120908,1147925,31460803374,120981,1147635,31460803374,120899,1147657,31460803374,120912,1147396,31460803374,120899,1147665,31460803374,120857,1147879,31460803374,120895,1147644,31460803374,120929,1147934,31460803374,120968,1148238,31460803374,120912,1148122,31460803374,120899,1148293,31460803374,120943,1148604,31460803374,120929,1148420,31460803374,120921,1148676,31460803374,120977,1148894,31460803374,121028,1148642,31460803374,121002,1148301,31460803374,121036,1148113,31460803374,121019,1147870,31460803374,121087,1148101,31460803374,120998,1148369,31460803374,121087,1148054,31460803374,121075,1148433,31460803374,121015,1148638,31460803374,121130,1148463,31460803374,121028,1148693,31460803374,121075,1149051,31460803374,121155,1148983,31460803374,121172,1149227,31460803374,121189,1148975,31460803374,121172,1148676,31460803374,121075,1148519,31460803374,121070,1148706,31460803374,121164,1148702,31460803374,121198,1149078,31460803374,121241,1149295,31460803374,121194,1149330,31460803374,121322,1149671,31460803374,121318,1149939,31460803374,121314,1149914,31460803374,121365,1149961,31460803374,121254,1150280,31460803374,121343,1150084,31460803374,121305,1150408,31460803374,121335,1150515,31460803374,121297,1150382,31460803374,121335,1150050,31460803374,121369,1149585,31460803374,121288,1149389,31460803374,121335,1149116,31460803374,121202,1149290,31460803374,121343,1148890,31460803374,121220,1148924,31460803374,121172,1149180,31460803374,121164,1148801,31460803374,121189,1148920,31460803374,121121,1148958,31460803374,121109,1148574,31460803374,121113,1148630,31460803374,121104,1148672,31460803374,121041,1148378,31460803374,121070,1148101,31460803374,120947,1147764,31460803374,120904,1147337,31460803374,120882,1146919,31460803374,120887,1147013,31460803374,120806,1146634,31460803374,120810,1146668,31460803374,120802,1146821,31460803374,120776,1146492,31460803374,120772,1146573,31460803374,120776,1146565,31460803374,120708,1146275,31460803374,120648,1146270,31460803374,120648,1146480,31460803374,120678,1146168,31460803374,120674,1146241,31460803374,120717,1146467,31460803374,120652,1146113,31460803374,120656,1145690,31460803374,120609,1145456,31460803374,120584,1145110,31460803374,120571,1144833,31460803374,120516,1144918,31460803374,120533,1144547,31460803374,120469,1144581,31460803374,120473,1144654,31460803374,120550,1144334,31460803374,120486,1144505,31460803374,120533,1144428,31460803374,120444,1144364,31460803374,120444,1144215,31460803374,120461,1144185,31460803374,120490,1144147,31460803374,120435,1143860,31460803374,120503,1144065,31460803374,120490,1143899,31460803374,120439,1144206,31460803374,120465,1144458,31460803374,120516,1144274,31460803374,120529,1144458,31460803374,120524,1144876,31460803374,120537,1144607,31460803374,120490,1144833,31460803374,120588,1145221,31460803374,120597,1145089,31460803374,120588,1145388,31460803374,120580,1145396,31460803374,120575,1145174,31460803374,120601,1144962,31460803374,120592,1144786,31460803374,120670,1144543,31460803374,120605,1144897,31460803374,120738,1145144,31460803374,120704,1145093,31460803374,120734,1145379,31460803374,120687,1145707,31460803374,120789,1145656,31460803374,120789,1145874,31460803374,120725,1146386,31460803374,120785,1146258,31460803374,120708,1146522,31460803374,120814,1146945,31460803374,120823,1146791,31460803374,120806,1146945,31460803374,120806,1146723,31460803374,120848,1146617,31460803374,120865,1146450,31460803374,120916,1146270,31460803374,120947,1146224,31460803374,120870,1146352,31460803374,120947,1146727,31460803374,120956,1146565,31460803374,120956,1146680,31460803374,120848,1146859,31460803374,120947,1146719,31460803374,120939,1146514,31460803374,120865,1146526,31460803374,120865,1146219,31460803374,120844,1145895,31460803374,120755,1145567,31460803374,120755,1145332,31460803374,120738,1144952,31460803374,120853,1144569,31460803374,120656,1144262,31460803374,120712,1144475,31460803374,120605,1144594,31460803374,120639,1144262,31460803374,120580,1144359,31460803374,120533,1144376,31460803374,120516,1144103,31460803374,120512,1144133,31460803374,120461,1144355,31460803374,120533,1144061,31460803374,120482,1144018,31460803374,120418,1143643,31460803374,120439,1143276,31460803374,120444,1142884,31460803374,120439,1142948,31460803374,120370,1142641,31460803374,120341,1142704,31460803374,120379,1142956,31460803374,120315,1142607,31460803374,120268,1142683,31460803374,120120,1142734,31460803374,120256,1142679,31460803374,120264,1142760,31460803374,120273,1142892,31460803374,120213,1142666,31460803374,120209,1142786,31460803374,120302,1143007,31460803374,120213,1142658,31460803374,120149,1142325,31460803374,120110,1142052,31460803374,120175,1141707,31460803374,120145,1141413,31460803374,120124,1141663,31460803374,120166,1141421,31460803374,120114,1141680,31460803374,120097,1141856,31460803374,120055,1141634,31460803374,120175,1141809,31460803374,120239,1142099,31460803374,120093,1141805,31460803374,120162,1142073,31460803374,120145,1142240,31460803374,120188,1141980,31460803374,120183,1142141,31460803374,120145,1142291,31460803374,120154,1142099,31460803374,120179,1141936,31460803374,120179,1141847,31460803374,120239,1141724,31460803374,120213,1141510,31460803374,120290,1141907,31460803374,120302,1141834,31460803374,120260,1142052,31460803374,120192,1142453,31460803374,120358,1142244,31460803374,120294,1142649,31460803374,120290,1143119,31460803374,120435,1143011,31460803374,120405,1143430,31460803374,120422,1143809,31460803374,120375,1143707,31460803374,120387,1143822,31460803374,120427,1143737,31460803374,120422,1143614,31460803374,120448,1143540,31460803374,120435,1144052,31460803374,120490,1143813,31460803374,120465,1144027,31460803374,120533,1144334,31460803374,120622,1144364,31460803374,120597,1144615,31460803374,120605,1145021,31460803374,120609,1144897,31460803374,120687,1145371,31460803374,120742,1145498,31460803374,120704,1145324,31460803374,120785,1145204,31460803374,120670,1145038,31460803374,120725,1144850,31460803374,120806,1144573,31460803374,120755,1144871,31460803374,120708,1144888,31460803374,120704,1145051,31460803374,120691,1145229,31460803374,120725,1144825,31460803374,120734,1145132,31460803374,120660,1145277,31460803374,120652,1144939,31460803374,120734,1145038,31460803374,120609,1145221,31460803374,120656,1145000,31460803374,120537,1144910,31460803374,120533,1144628,31460803374,120529,1144628,31460803374,120529,1144317,31460803374,120452,1143955,31460803374,120537,1143605,31460803374,120444,1143246,31460803374,120370,1143353,31460803374,120431,1143020,31460803374,120370,1143170,31460803374,120307,1143314,31460803374,120397,1143106,31460803374,120366,1143379,31460803374,120290,1143540,31460803374,120273,1143182,31460803374,120302,1143400,31460803374,120349,1143502,31460803374,120302,1143447,31460803374,120379,1143566,31460803374,120366,1143119,31460803374,120281,1142905,31460803374,120285,1142790,31460803374,120285,1142973,31460803374,120285,1142973,31460803374,120341,1142986,31460803374,120319,1143238,31460803374,120319,1143238,31460803374,120264,1142880,31460803374,120256,1143024,31460803374,120209,1142751,31460803374,120328,1143216,31460803374,120370,1143007,31460803374,120294,1142760,31460803374,120277,1142478,31460803374,120256,1142120,31460803374,120217,1141894,31460803374,120268,1142283,31460803374,120324,1142448,31460803374,120324,1142414,31460803374,120205,1142611,31460803374,120414,1142863,31460803374,120387,1142747,31460803374,120393,1143123,31460803374,120379,1143426,31460803374,120397,1143255,31460803374,120414,1143711,31460803374,120439,1144027,31460803374,120478,1143784,31460803374,120473,1143801,31460803374,120490,1143669,31460803374,120478,1143498,31460803374,120435,1143392,31460803374,120495,1143711,31460803374,120546,1143400,31460803374,120461,1143699,31460803374,120512,1143912,31460803374,120533,1143843,31460803374,120588,1144296,31460803374,120575,1144569,31460803374,120639,1144441,31460803374,120660,1144765,31460803374,120605,1145047,31460803374,120639,1145072,31460803374,120742,1145644,31460803374,120742,1145644,31460803374,120712,1145597,31460803374,120725,1145550,31460803374,120776,1145400,31460803374,120806,1145320,31460803374,120810,1145652,31460803374,120802,1146014,31460803374,120814,1145767,31460803374,120827,1146088,31460803374,120878,1146552,31460803374,120819,1146399,31460803374,120853,1146638,31460803374,120951,1147102,31460803374,120904,1146890,31460803374,120951,1147034,31460803374,120891,1147277,31460803374,120943,1146979,31460803374,120836,1147154,31460803374,120836,1147154,31460803374,120933,1147038,31460803374,120887,1146850,31460803374,120831,1146778,31460803374,120823,1146253,31460803374,120785,1145968,31460803374,120827,1145993,31460803374,120763,1145690,31460803374,120725,1145929,31460803374,120721,1145870,31460803374,120746,1145597,31460803374,120648,1145652,31460803374,120609,1145823,31460803374,120609,1145823,31460803374,120601,1145840,31460803374,120660,1145508,31460803374,120588,1145413,31460803374,120601,1145089,31460803374,120660,1144962,31460803374,120588,1145183,31460803374,120639,1144735,31460803374,120674,1144791,31460803374,120567,1144471,31460803374,120652,1144697,31460803374,120648,1144769,31460803374,120537,1144505,31460803374,120674,1144649,31460803374,120597,1144778,31460803374,120597,1144496,31460803374,120541,1144710,31460803374,120541,1144710,31460803374,120537,1144833,31460803374,120495,1144683,31460803374,120461,1144782,31460803374,120473,1144462,31460803374,120465,1144782,31460803374,120554,1145038,31460803374,120520,1144675,31460803374,120614,1144935,31460803374,120546,1145191,31460803374,120584,1145081,31460803374,120567,1145153,31460803374,120592,1145303,31460803374,120533,1145170,31460803374,120554,1145520,31460803374,120618,1145729,31460803374,120546,1145656,31460803374,120546,1145656,31460803374,120571,1145819,31460803374,120520,1145580,31460803374,120580,1145460,31460803374,120575,1145644,31460803374,120537,1145468,31460803374,120580,1145712,31460803374,120567,1145895,31460803374,120580,1145733,31460803374,120546,1145891,31460803374,120660,1146262,31460803374,120687,1146096,31460803374,120601,1146344,31460803374,120601,1146224,31460803374,120742,1146604,31460803374,120708,1146509,31460803374,120751,1146706,31460803374,120742,1146846,31460803374,120785,1146881,31460803374,120797,1147158,31460803374,120831,1147068,31460803374,120836,1147354,31460803374,120908,1147798,31460803374,120882,1147448,31460803374,120921,1147730,31460803374,120916,1148033,31460803374,120939,1147999,31460803374,120887,1148365,31460803374,121015,1148591,31460803374,120951,1148357,31460803374,121019,1148471,31460803374,121066,1148399,31460803374,121096,1148224,31460803374,121130,1147951,31460803374,121189,1148463,31460803374,121126,1148207,31460803374,121104,1148604,31460803374,121138,1148958,31460803374,121212,1148830,31460803374,121331,1148932,31460803374,121241,1149355,31460803374,121305,1149142,31460803374,121309,1149385,31460803374,121229,1149444,31460803374,121220,1149299,31460803374,121314,1149508,31460803374,121335,1149615,31460803374,121246,1149210,31460803374,121224,1148962,31460803374,121220,1148536,31460803374,121288,1148122,31460803374,121181,1147965,31460803374,121250,1148016,31460803374,121126,1147726,31460803374,121233,1147678,31460803374,121177,1147533,31460803374,121104,1147192,31460803374,121109,1147184,31460803374,120985,1147038,31460803374,121087,1146685,31460803374,121015,1146770,31460803374,121041,1146651,31460803374,120943,1146283,31460803374,121019,1146378,31460803374,120943,1146378,31460803374,120943,1145921,31460803374,120916,1145699,31460803374,120933,1145417,31460803374,120912,1145315,31460803374,120929,1145072,31460803374,120861,1145030,31460803374,120878,1144774,31460803374,120895,1144991,31460803374,120853,1145123,31460803374,120810,1144962,31460803374,120746,1145217,31460803374,120806,1145413,31460803374,120755,1145166,31460803374,120810,1144991,31460803374,120789,1144765,31460803374,120831,1144501,31460803374,120819,1144765,31460803374,120768,1144983,31460803374,120797,1144867,31460803374,120874,1145183,31460803374,120823,1145366,31460803374,120793,1145136,31460803374,120793,1145281,31460803374,120776,1145614,31460803374,120891,1145434,31460803374,120857,1145823,31460803374,120844,1145985,31460803374,120874,1145798,31460803374,120853,1145963,31460803374,120827,1146207,31460803374,120874,1146096,31460803374,120836,1145836,31460803374,120827,1145546,31460803374,120899,1145460,31460803374,120968,1145247,31460803374,120904,1145379,31460803374,120973,1145383,31460803374,120951,1145648,31460803374,120964,1145968,31460803374,121011,1145771,31460803374,121002,1146126,31460803374,121032,1146429,31460803374,120951,1146236,31460803374,121032,1146463,31460803374,121011,1146924,31460803374,121113,1146799,31460803374,121015,1146928,31460803374,121126,1146911,31460803374,121104,1146740,31460803374,121066,1146638,31460803374,121164,1146471,31460803374,121160,1146433,31460803374,121241,1146821,31460803374,121185,1147184,31460803374,121224,1147119,31460803374,121301,1147550,31460803374,121241,1147845,31460803374,121229,1147802,31460803374,121318,1148207,31460803374,121360,1148536,31460803374,121365,1148425,31460803374,121343,1148744,31460803374,121471,1149188,31460803374,121433,1149051,31460803374,121565,1149030,31460803374,121506,1148886,31460803374,121523,1148770,31460803374,121531,1149078,31460803374,121557,1149423,31460803374,121625,1149432,31460803374,121557,1149726,31460803374,121689,1150024,31460803374,121612,1149849,31460803374,121540,1150092,31460803374,121672,1150348,31460803374,121599,1150170,31460803374,121591,1150126,31460803374,121650,1149905,31460803374,121616,1149624,31460803374,121557,1149334,31460803374,121514,1148945,31460803374,121557,1148655,31460803374,121574,1148898,31460803374,121493,1148979,31460803374,121523,1148638,31460803374,121437,1148672,31460803374,121523,1148719,31460803374,121386,1148437,31460803374,121382,1148600,31460803374,121331,1148655,31460803374,121411,1148352,31460803374,121254,1148604,31460803374,121360,1148664,31460803374,121309,1148361,31460803374,121254,1147990,31460803374,121246,1147614,31460803374,121160,1147453,31460803374,121258,1147158,31460803374,121206,1147337,31460803374,121147,1146962,31460803374,121160,1147175,31460803374,121241,1147388,31460803374,121206,1147260,31460803374,121309,1147495,31460803374,121280,1147635,31460803374,121198,1147299,31460803374,121216,1147277,31460803374,121194,1147533,31460803374,121185,1147260,31460803374,121138,1147495,31460803374,121134,1147461,31460803374,121194,1147354,31460803374,121113,1147163,31460803374,121083,1146907,31460803374,121147,1146552,31460803374,121181,1146753,31460803374,121206,1146970,31460803374,121185,1146829,31460803374,121177,1147030,31460803374,121168,1147252,31460803374,121241,1147154,31460803374,121254,1147423,31460803374,121250,1147760,31460803374,121212,1147614,31460803374,121275,1147879,31460803374,121301,1148232,31460803374,121343,1148096,31460803374,121212,1148284,31460803374,121271,1148177,31460803374,121365,1148037,31460803374,121305,1147798,31460803374,121326,1148096,31460803374,121360,1148007,31460803374,121377,1148143,31460803374,121394,1148651,31460803374,121343,1148591,31460803374,121445,1148869,31460803374,121420,1149205,31460803374,121407,1149180,31460803374,121445,1149478,31460803374,121437,1149739,31460803374,121506,1149597,31460803374,121502,1149914,31460803374,121544,1150024,31460803374,121514,1149901,31460803374,121595,1149585,31460803374,121638,1149478,31460803374,121625,1149252,31460803374,121574,1149167,31460803374,121680,1149603,31460803374,121659,1149419,31460803374,121667,1149709,31460803374,121680,1149999,31460803374,121779,1149914,31460803374,121735,1150135,31460803374,121864,1150579,31460803374,121843,1150412,31460803374,121915,1150229,31460803374,121906,1150331,31460803374,121906,1150331,31460803374,121940,1150579,31460803374,121894,1150997,31460803374,121894,1150997,31460803374,121915,1151245,31460803374,122004,1151620,31460803374,122004,1151620,31460803374,122021,1151701,31460803374,121923,1151825,31460803374,121923,1151825,31460803374,121932,1151684,31460803374,121949,1151808,31460803374,121881,1151518,31460803374,121851,1151667,31460803374,121851,1151389,31460803374,121830,1151082,31460803374,121923,1150860,31460803374,121834,1150404,31460803374,121860,1150054,31460803374,121826,1150234,31460803374,121735,1150490,31460803374,121779,1150217,31460803374,121800,1150481,31460803374,121855,1150818,31460803374,121838,1150485,31460803374,121762,1150707,31460803374,121783,1150886,31460803374,121718,1150575,31460803374,121787,1150814,31460803374,121821,1150873,31460803374,121821,1150873,31460803374,121714,1150575,31460803374,121701,1150310,31460803374,121684,1150067,31460803374,121714,1149777,31460803374,121629,1149495,31460803374,121587,1149299,31460803374,121604,1149491,31460803374,121646,1149794,31460803374,121693,1149487,31460803374,121599,1149713,31460803374,121680,1149956,31460803374,121650,1149935,31460803374,121650,1149935,31460803374,121582,1150033,31460803374,121676,1149876,31460803374,121663,1150020,31460803374,121706,1150174,31460803374,121706,1150174,31460803374,121693,1150361,31460803374,121629,1150058,31460803374,121621,1149802,31460803374,121680,1150003,31460803374,121650,1149768,31460803374,121680,1149483,31460803374,121676,1149815,31460803374,121740,1150229,31460803374,121762,1150012,31460803374,121706,1150443,31460803374,121663,1150699,31460803374,121766,1150562,31460803374,121684,1150251,31460803374,121752,1150084,31460803374,121792,1149905,31460803374,121752,1149862,31460803374,121775,1150183,31460803374,121779,1149990,31460803374,121779,1150293,31460803374,121770,1150741,31460803374,121752,1150579,31460803374,121830,1150954,31460803374,121813,1151296,31460803374,121855,1151091,31460803374,121885,1151406,31460803374,121928,1151863,31460803374,121864,1151582,31460803374,121868,1151982,31460803374,121979,1152494,31460803374,121979,1152494,31460803374,121974,1152827,31460803374,121906,1152575,31460803374,121915,1152818,31460803374,122025,1152588,31460803374,121996,1152729,31460803374,122000,1152610,31460803374,122099,1152814,31460803374,122124,1153198,31460803374,122124,1152896,31460803374,122133,1153215,31460803374,122154,1153620,31460803374,122145,1153463,31460803374,122205,1153834,31460803374,122329,1154192,31460803374,122179,1153948,31460803374,122201,1154221,31460803374,122201,1154221,31460803374,122209,1154213,31460803374,122175,1153919,31460803374,122213,1153940,31460803374,122103,1153667,31460803374,122205,1153795,31460803374,122069,1153944,31460803374,122103,1153595,31460803374,122137,1153774,31460803374,122052,1153931,31460803374,122056,1153446,31460803374,122069,1153603,31460803374,121979,1153684,31460803374,121962,1153334,31460803374,122052,1153070,31460803374,122043,1152767,31460803374,121932,1152319,31460803374,121974,1152072,31460803374,121966,1152298,31460803374,121932,1151833,31460803374,121940,1151914,31460803374,121885,1152293,31460803374,121902,1151978,31460803374,121843,1152003,31460803374,121830,1152242,31460803374,121881,1151889,31460803374,121830,1152054,31460803374,121770,1152272,31460803374,121826,1152020,31460803374,121868,1152213,31460803374,121830,1152413,31460803374,121830,1152310,31460803374,121843,1152464,31460803374,121813,1152276,31460803374,121762,1152302,31460803374,121766,1152166,31460803374,121783,1152293,31460803374,121710,1151906,31460803374,121762,1152145,31460803374,121817,1152315,31460803374,121826,1152153,31460803374,121775,1152208,31460803374,121672,1152371,31460803374,121710,1152196,31460803374,121766,1152315,31460803374,121748,1152503,31460803374,121775,1152276,31460803374,121758,1152524,31460803374,121748,1152644,31460803374,121800,1152865,31460803374,121834,1152473,31460803374,121787,1152562,31460803374,121813,1152703,31460803374,121830,1152678,31460803374,121830,1152930,31460803374,121813,1152473,31460803374,121787,1152652,31460803374,121792,1152896,31460803374,121834,1152720,31460803374,121843,1152896,31460803374,121851,1153271,31460803374,121911,1153002,31460803374,121881,1152873,31460803374,121830,1152695,31460803374,121936,1152583,31460803374,121966,1152413,31460803374,121885,1152818,31460803374,121885,1152610,31460803374,121983,1152981,31460803374,121923,1153339,31460803374,122000,1153112,31460803374,122017,1153437,31460803374,122025,1153646,31460803374,122025,1153459,31460803374,122017,1153612,31460803374,122008,1153829,31460803374,122120,1153821,31460803374,122031,1153948,31460803374,122154,1154166,31460803374,122120,1154056,31460803374,122111,1153859,31460803374,122094,1153565,31460803374,122175,1153288,31460803374,122103,1153152,31460803374,122077,1153419,31460803374,122094,1153220,31460803374,122158,1153356,31460803374,122082,1153723,31460803374,122192,1153373,31460803374,122086,1153612,31460803374,122065,1153702,31460803374,122004,1153390,31460803374,122035,1153629,31460803374,122103,1153719,31460803374,122021,1153368,31460803374,121940,1153326,31460803374,121940,1153019,31460803374,121991,1152759,31460803374,121983,1152430,31460803374,121945,1152443,31460803374,121911,1152106,31460803374,121906,1152140,31460803374,121906,1152384,31460803374,121775,1152020,31460803374,121860,1152153,31460803374,121911,1152371,31460803374,121783,1151978,31460803374,121758,1152054,31460803374,121714,1152293,31460803374,121783,1151965,31460803374,121758,1152102,31460803374,121804,1152204,31460803374,121714,1151466,31460803374,121714,1151466,31460803374,121843,1151184,31460803374,121766,1151014,31460803374,121826,1150643,31460803374,121680,1150685,31460803374,121714,1150447,31460803374,121693,1150545,31460803374,121667,1150852,31460803374,121740,1150664,31460803374,121684,1150886,31460803374,121723,1151172,31460803374,121701,1150826,31460803374,121659,1150937,31460803374,121608,1150750,31460803374,121608,1150443,31460803374,121557,1150251,31460803374,121663,1150101,31460803374,121514,1149819,31460803374,121591,1150063,31460803374,121663,1150348,31460803374,121633,1150212,31460803374,121621,1150422,31460803374,121561,1150643,31460803374,121625,1150541,31460803374,121621,1150818,31460803374,121587,1151040,31460803374,121595,1150928,31460803374,121599,1151104,31460803374,121706,1151470,31460803374,121612,1151275,31460803374,121667,1151036,31460803374,121693,1150890,31460803374,121693,1150664,31460803374,121646,1150907,31460803374,121744,1151176,31460803374,121693,1151040,31460803374,121714,1151398,31460803374,121766,1151769,31460803374,121735,1151696,31460803374,121727,1151829,31460803374,121830,1151787,31460803374,121804,1151586,31460803374,121735,1151931,31460803374,121796,1151991,31460803374,121860,1152094,31460803374,121881,1152396,31460803374,121889,1152464,31460803374,121889,1152418,31460803374,121953,1152401,31460803374,121966,1152132,31460803374,121928,1151965,31460803374,122043,1151935,31460803374,121906,1152238,31460803384,121953,1152145,41460803384,122021,1152490,41460803384,121966,1152708,41460803384,121987,1152473,41460803384,122000,1152644,41460803384,121932,1153074,41460803384,121957,1152856,41460803384,121983,1153032,41460803384,121940,1153241,41460803384,121906,1152904,41460803384,121936,1152934,41460803384,121915,1152456,41460803384,121962,1152119,41460803384,121843,1151812,41460803384,121804,1151436,41460803384,121817,1151108,41460803384,121813,1151235,41460803384,121830,1151214,41460803384,121723,1151006,41460803384,121792,1151142,41460803384,121735,1151189,41460803384,121650,1150928,41460803384,121714,1151095,41460803384,121714,1151279,41460803384,121574,1150997,41460803384,121633,1150920,41460803384,121616,1151104,41460803384,121553,1150848,41460803384,121587,1150536,41460803384,121510,1150229,41460803384,121506,1149905,41460803384,121497,1150063,41460803384,121458,1150114,41460803384,121506,1149790,41460803384,121454,1149880,41460803384,121399,1150020,41460803384,121441,1149580,41460803384,121467,1149836,41460803384,121369,1149901,41460803384,121407,1149580,41460803384,121403,1149628,41460803384,121407,1149324,41460803384,121326,1148954,41460803384,121309,1148647,41460803384,121318,1148476,41460803384,121284,1148293,41460803384,121288,1148399,41460803384,121267,1148693,41460803384,121224,1148386,41460803384,121258,1148685,41460803384,121258,1148903,41460803384,121301,1148809,41460803384,121309,1148945,41460803384,121297,1149167,41460803384,121288,1149000,41460803384,121233,1149295,41460803384,121267,1149637,41460803384,121314,1149453,41460803384,121297,1149218,41460803384,121254,1149022,41460803384,121343,1148898,41460803384,121314,1148634,41460803384,121305,1148949,41460803384,121292,1148784,41460803384,121292,1149188,41460803384,121348,1149517,41460803384,121309,1149201,41460803384,121386,1149197,41460803384,121445,1149500,41460803384,121462,1149389,41460803384,121437,1149649,41460803384,121445,1149918,41460803384,121428,1149905,41460803384,121450,1150143,41460803384,121502,1150221,41460803384,121531,1150139,41460803384,121582,1149999,41460803384,121506,1150170,41460803384,121506,1150170,41460803384,121582,1150370,41460803384,121570,1150788,41460803384,121570,1150788,41460803384,121587,1150630,41460803384,121553,1150733,41460803384,121553,1150733,41460803384,121608,1150712,41460803384,121633,1150886,41460803384,121595,1151193,41460803384,121595,1151193,41460803384,121659,1151389,41460803384,121735,1151253,41460803384,121748,1151543,41460803384,121672,1151377,41460803384,121663,1151201,41460803384,121710,1151014,41460803384,121744,1150660,41460803384,121570,1150473,41460803384,121548,1150617,41460803384,121582,1150899,41460803384,121557,1150439,41460803384,121599,1150672,41460803384,121462,1150860,41460803384,121479,1150553,41460803384,121454,1150587,41460803384,121454,1150587,41460803384,121493,1150302,41460803384,121462,1149841,41460803384,121424,1149538,41460803384,121416,1149086,41460803384,121403,1148877,41460803384,121314,1148971,41460803384,121305,1148668,41460803384,121301,1148979,41460803384,121292,1149112,41460803384,121292,1148856,41460803384,121189,1149150,41460803384,121292,1149252,41460803384,121212,1149065,41460803384,121198,1149154,41460803384,121202,1149218,41460803384,121280,1148945,41460803384,121284,1149022,41460803384,121212,1148642,41460803384,121246,1148352,41460803384,121206,1148045,41460803384,121297,1148152,41460803384,121198,1148045,41460803384,121198,1148045,41460803384,121224,1148190,41460803384,121126,1147969,41460803384,121155,1148246,41460803384,121096,1148361,41460803384,121138,1148054,41460803384,121066,1148263,41460803384,121121,1148403,41460803384,121104,1148156,41460803384,121066,1148284,41460803384,121113,1148574,41460803384,121113,1148574,41460803384,121138,1148617,41460803384,121053,1148442,41460803384,121130,1148211,41460803384,121100,1147904,41460803384,121130,1147661,41460803384,121181,1147448,41460803384,121087,1147862,41460803384,121168,1148067,41460803384,121113,1147900,41460803384,121117,1148147,41460803384,121189,1148501,41460803384,121212,1148365,41460803384,121194,1148651,41460803384,121220,1148971,41460803384,121177,1148749,41460803384,121177,1148877,41460803384,121258,1148911,41460803384,121241,1148732,41460803384,121246,1148540,41460803384,121233,1148881,41460803384,121250,1148562,41460803384,121275,1148403,41460803384,121322,1148693,41460803384,121373,1148634,41460803384,121352,1148881,41460803384,121403,1149261,41460803384,121348,1149116,41460803384,121411,1149563,41460803384,121382,1150067,41460803384,121382,1150067,41460803384,121403,1150395,41460803384,121407,1150263,41460803384,121475,1150404,41460803384,121540,1150361,41460803384,121489,1150583,41460803384,121531,1150387,41460803384,121561,1150630,41460803384,121574,1150848,41460803384,121497,1150638,41460803384,121519,1150788,41460803384,121475,1150937,41460803384,121475,1150750,41460803384,121506,1150685,41460803384,121553,1150899,41460803384,121527,1150549,41460803384,121445,1150511,41460803384,121445,1150511,41460803384,121493,1150677,41460803384,121475,1150391,41460803384,121377,1150046,41460803384,121318,1149589,41460803384,121390,1149307,41460803384,121382,1149372,41460803384,121390,1149099,41460803384,121263,1149142,41460803384,121292,1149295,41460803384,121314,1148877,41460803384,121348,1148886,41460803384,121318,1149112,41460803384,121250,1148907,41460803384,121250,1148966,41460803384,121233,1149222,41460803384,121233,1148911,41460803384,121233,1148706,41460803384,121229,1148835,41460803384,121206,1148801,41460803384,121202,1148454,41460803384,121134,1148621,41460803384,121185,1148318,41460803384,121206,1148386,41460803384,121185,1148608,41460803384,121181,1148433,41460803384,121177,1148540,41460803384,121168,1148873,41460803384,121185,1148505,41460803384,121181,1148604,41460803384,121202,1148873,41460803384,121079,1148600,41460803384,121224,1148744,41460803384,121041,1148890,41460803384,121041,1148625,41460803384,121189,1148710,41460803384,121143,1148493,41460803384,121189,1148579,41460803384,121151,1148693,41460803384,121177,1148890,41460803384,121087,1148566,41460803384,121185,1148864,41460803384,121092,1149222,41460803384,121194,1148784,41460803384,121177,1149159,41460803384,121224,1149347,41460803384,121258,1149449,41460803384,121258,1149449,41460803384,121206,1149427,41460803384,121216,1149585,41460803384,121202,1149453,41460803384,121160,1149504,41460803384,121194,1149210,41460803384,121220,1149632,41460803384,121229,1149760,41460803384,121254,1149658,41460803384,121309,1149815,41460803384,121246,1150041,41460803384,121267,1149845,41460803384,121284,1150024,41460803384,121297,1150242,41460803384,121424,1150135,41460803384,121322,1150246,41460803384,121437,1150374,41460803384,121437,1150200,41460803384,121360,1150336,41460803384,121437,1150126,41460803384,121450,1150255,41460803384,121485,1149944,41460803384,121462,1150037,41460803384,121420,1149836,41460803384,121544,1150153,41460803384,121506,1150507,41460803384,121565,1150348,41460803384,121548,1150553,41460803384,121514,1150737,41460803384,121565,1150464,41460803384,121510,1150707,41460803384,121485,1150750,41460803384,121458,1150378,41460803384,121420,1150310,41460803384,121437,1150024,41460803384,121428,1149576,41460803384,121382,1149171,41460803384,121394,1149261,41460803384,121365,1148937,41460803384,121271,1148992,41460803384,121356,1149057,41460803384,121267,1148757,41460803384,121280,1148860,41460803384,121229,1148894,41460803384,121198,1148511,41460803384,121172,1148591,41460803384,121147,1148655,41460803384,121160,1148323,41460803384,121164,1148101,41460803384,121164,1147942,41460803384,121087,1147307,41460803384,121087,1147307,41460803384,121121,1146911,41460803384,121087,1146590,41460803384,121058,1146156,41460803384,121058,1146160,41460803384,121015,1145793,41460803384,121062,1145942,41460803384,121028,1146058,41460803384,120912,1145746,41460803384,120985,1145968,41460803384,120985,1146173,41460803384,120985,1145861,41460803384,120977,1146143,41460803384,120994,1146224,41460803384,120921,1145925,41460803384,121007,1145682,41460803384,120925,1145494,41460803384,120908,1145298,41460803384,120925,1145076,41460803384,120921,1145273,41460803384,120895,1145102,41460803384,120904,1145477,41460803384,120998,1145525,41460803384,120990,1145371,41460803384,120947,1145584,41460803384,120878,1145754,41460803384,120870,1145456,41460803384,120981,1145707,41460803384,120933,1145963,41460803384,120912,1145699,41460803384,120933,1145771,41460803384,120973,1145430,41460803384,120960,1145217,41460803384,120929,1145081,41460803384,120912,1145358,41460803384,121011,1144996,41460803384,120960,1145307,41460803384,121019,1145639,41460803384,120977,1145451,41460803384,121049,1145904,41460803384,121041,1146300,41460803384,121104,1146075,41460803384,121036,1146522,41460803384,121109,1146846,41460803384,121007,1146697,41460803384,121070,1146992,41460803384,121134,1147256,41460803384,121189,1147192,41460803384,121189,1146953,41460803384,121138,1146850,41460803384,121250,1146672,41460803384,121237,1146565,41460803384,121220,1146915,41460803384,121258,1146873,41460803384,121271,1147175,41460803384,121229,1147453,41460803384,121326,1147282,41460803384,121258,1147392,41460803384,121322,1147669,41460803384,121250,1147453,41460803384,121314,1147572,41460803384,121220,1147713,41460803384,121254,1147371,41460803384,121212,1147601,41460803384,121216,1147580,41460803384,121216,1147146,41460803384,121220,1146642,41460803384,121177,1146304,41460803384,121100,1145836,41460803384,121049,1145525,41460803384,121007,1145635,41460803384,121053,1145273,41460803384,121036,1145358,41460803384,120943,1145542,41460803384,120998,1145055,41460803384,120933,1145235,41460803384,120844,1145341,41460803384,120933,1144910,41460803384,120831,1144577,41460803384,120751,1144095,41460803384,120848,1143643,41460803384,120708,1143843,41460803384,120814,1143874,41460803384,120683,1143614,41460803384,120687,1143792,41460803384,120605,1144001,41460803384,120704,1143762,41460803384,120683,1143938,41460803384,120666,1143874,41460803384,120704,1143562,41460803384,120588,1143908,41460803384,120626,1143950,41460803384,120588,1143648,41460803384,120512,1143771,41460803384,120567,1143665,41460803384,120495,1143400,41460803384,120533,1143131,41460803384,120529,1142901,41460803384,120524,1143020,41460803384,120503,1142795,41460803384,120435,1142491,41460803384,120490,1142150,41460803384,120452,1142266,41460803384,120473,1142351,41460803384,120461,1142175,41460803384,120503,1142039,41460803384,120465,1142244,41460803384,120558,1142010,41460803384,120537,1142146,41460803384,120529,1142385,41460803384,120410,1142150,41460803384,120537,1142287,41460803384,120524,1142090,41460803384,120550,1141898,41460803384,120541,1141686,41460803384,120524,1141549,41460803384,120609,1141382,41460803384,120567,1141621,41460803384,120597,1141911,41460803384,120575,1141732,41460803384,120546,1142095,41460803384,120550,1142436,41460803384,120626,1142249,41460803384,120597,1142607,41460803384,120618,1142837,41460803384,120614,1142778,41460803384,120575,1143063,41460803384,120742,1143421,41460803384,120670,1143255,41460803384,120721,1143024,41460803384,120712,1142977,41460803384,120738,1142841,41460803384,120789,1143119,41460803384,120772,1143447,41460803384,120789,1143771,41460803384,120772,1144103,41460803384,120797,1144492,41460803384,120797,1144492,41460803384,120870,1144774,41460803384,120874,1144983,41460803384,120874,1144983,41460803384,120857,1145144,41460803384,120904,1145315,41460803384,120904,1145315,41460803384,120870,1144970,41460803384,120870,1144654,41460803384,120899,1144420,41460803384,120831,1144044,41460803384,120789,1143660,41460803384,120853,1143250,41460803384,120772,1143276,41460803384,120793,1143404,41460803384,120734,1142935,41460803384,120660,1142960,41460803384,120687,1143174,41460803384,120622,1142709,41460803384,120618,1142499,41460803384,120618,1142499,41460803384,120546,1142226,41460803384,120529,1141843,41460803384,120427,1141301,41460803384,120546,1140918,41460803384,120418,1140410,41460803384,120418,1140563,41460803384,120383,1140307,41460803384,120336,1140342,41460803384,120405,1140350,41460803384,120427,1140056,41460803384,120324,1140162,41460803384,120298,1140397,41460803384,120277,1140073,41460803384,120183,1140158,41460803384,120209,1140298,41460803384,120110,1140307,41460803384,120110,1140307,41460803384,120114,1140286,41460803384,120106,1139966,41460803384,120072,1139718,41460803384,120102,1139775,41460803384,120124,1139450,41460803384,120106,1139650,41460803384,120051,1139860,41460803384,120085,1139519,41460803384,119991,1139672,41460803384,120012,1139894,41460803384,120055,1139570,41460803384,119978,1139821,41460803384,120192,1140025,41460803384,120051,1139792,41460803384,120025,1139889,41460803384,120093,1140038,41460803384,120102,1139693,41460803384,120046,1139458,41460803384,120029,1139258,41460803384,120097,1138981,41460803384,120072,1138836,41460803384,120055,1139134,41460803384,120093,1138844,41460803384,120114,1139113,41460803384,120076,1139206,41460803384,120102,1139104,41460803384,120063,1139314,41460803384,120162,1139710,41460803384,120196,1139450,41460803384,120196,1139360,41460803384,120179,1139565,41460803384,120222,1139352,41460803384,120141,1139219,41460803384,120277,1139399,41460803384,120145,1139143,41460803384,120256,1139553,41460803384,120243,1139962,41460803384,120268,1139851,41460803384,120366,1140235,41460803384,120341,1140444,41460803384,120349,1140406,41460803384,120397,1140721,41460803384,120375,1140986,41460803384,120366,1140909,41460803384,120486,1141220,41460803384,120444,1141259,41460803384,120490,1141237,41460803384,120439,1141144,41460803384,120490,1141344,41460803384,120490,1141195,41460803384,120512,1141561,41460803384,120541,1141890,41460803384,120580,1141651,41460803384,120584,1142103,41460803384,120639,1142325,41460803384,120584,1142137,41460803384,120678,1142244,41460803384,120631,1142444,41460803384,120516,1142184,41460803384,120550,1142249,41460803384,120541,1142406,41460803384,120495,1141703,41460803384,120448,1141749,41460803384,120461,1141430,41460803384,120383,1141088,41460803384,120366,1140628,41460803384,120410,1140674,41460803384,120387,1140269,41460803384,120290,1140418,41460803384,120285,1140567,41460803384,120188,1140137,41460803384,120209,1140137,41460803384,120200,1140226,41460803384,120217,1139885,41460803384,120179,1139996,41460803384,120183,1140042,41460803384,120102,1139752,41460803384,120145,1139915,41460803384,120145,1139625,41460803384,120055,1139570,41460803384,120097,1139604,41460803384,120114,1139531,41460803384,120063,1139382,41460803384,120072,1139246,41460803384,120059,1139318,41460803384,120012,1138887,41460803384,120076,1139049,41460803384,119983,1139292,41460803384,120025,1138899,41460803384,119987,1139041,41460803384,119974,1139164,41460803384,120008,1138960,41460803384,119995,1139164,41460803384,120017,1139263,41460803384,119974,1138878,41460803384,119974,1138571,41460803384,119915,1138708,41460803384,120004,1138814,41460803384,119936,1138950,41460803384,119940,1139198,41460803384,119910,1139053,41460803384,120017,1139104,41460803384,119957,1139130,41460803384,120021,1139011,41460803384,119966,1139215,41460803384,120042,1139496,41460803384,120051,1139280,41460803384,120008,1139462,41460803384,120008,1139160,41460803384,120102,1139433,41460803384,120080,1139292,41460803384,120063,1139496,41460803384,120149,1139735,41460803384,120089,1139860,41460803384,120166,1140048,41460803384,120209,1139898,41460803384,120183,1140120,41460803384,120106,1140435,41460803384,120171,1140457,41460803384,120234,1140747,41460803384,120137,1140922,41460803384,120277,1140819,41460803384,120260,1140994,41460803384,120268,1141425,41460803384,120183,1141144,41460803384,120183,1141032,41460803384,120315,1141083,41460803384,120366,1141199,41460803384,120362,1140998,41460803384,120418,1141088,41460803384,120435,1141041,41460803384,120482,1141066,41460803384,120456,1141369,41460803384,120397,1141169,41460803384,120469,1141352,41460803384,120524,1141510,41460803384,120499,1141464,41460803384,120550,1141578,41460803384,120588,1141805,41460803384,120584,1141655,41460803384,120541,1141860,41460803384,120478,1141894,41460803384,120478,1141775,41460803384,120452,1141502,41460803384,120626,1141280,41460803384,120512,1140994,41460803384,120520,1141096,41460803384,120575,1141250,41460803384,120503,1140998,41460803384,120558,1141140,41460803384,120507,1141208,41460803384,120439,1140892,41460803384,120550,1141054,41460803384,120461,1141062,41460803384,120414,1140793,41460803384,120383,1140875,41460803384,120401,1140884,41460803384,120375,1140512,41460803384,120370,1140315,41460803384,120379,1140017,41460803384,120401,1139748,41460803384,120393,1139343,41460803384,120366,1138964,41460803384,120410,1138755,41460803384,120393,1138968,41460803384,120383,1139185,41460803384,120341,1138840,41460803384,120332,1139002,41460803384,120290,1139189,41460803384,120307,1138973,41460803384,120268,1139219,41460803384,120315,1139104,41460803384,120307,1138755,41460803384,120260,1138486,41460803384,120332,1138302,41460803384,120277,1138097,41460803384,120251,1137898,41460803384,120281,1138230,41460803384,120315,1137961,41460803384,120298,1138149,41460803384,120315,1138439,41460803384,120324,1138131,41460803384,120285,1138418,41460803384,120387,1138823,41460803384,120345,1138601,41460803384,120332,1138840,41460803384,120353,1139062,41460803384,120405,1138977,41460803384,120247,1139002,41460803384,120370,1138844,41460803384,120362,1138677,41460803384,120366,1138516,41460803384,120418,1138853,41460803384,120387,1138810,41460803384,120387,1139189,41460803384,120349,1139496,41460803384,120362,1139335,41460803384,120452,1139621,41460803384,120465,1140017,41460803384,120482,1139957,41460803384,120567,1140311,41460803384,120516,1140478,41460803384,120567,1140495,41460803384,120529,1140871,41460803384,120571,1141092,41460803384,120643,1140939,41460803384,120597,1140861,41460803384,120660,1140810,41460803384,120704,1140628,41460803384,120656,1140414,41460803384,120670,1140742,41460803384,120725,1140512,41460803384,120746,1141007,41460803384,120755,1141417,41460803384,120848,1141293,41460803384,120831,1141792,41460803384,120870,1142010,41460803384,120912,1141963,41460803384,120836,1142175,41460803384,120951,1142530,41460803384,120925,1142457,41460803384,121015,1142871,41460803384,121075,1142994,41460803384,120964,1142858,41460803384,121028,1142888,41460803384,121049,1142619,41460803384,120998,1142414,41460803384,121045,1142261,41460803384,121041,1142505,41460803384,121002,1142427,41460803384,121087,1142146,41460803384,121053,1142517,41460803384,121096,1142278,41460803384,121206,1142564,41460803384,121058,1142884,41460803384,121062,1142645,41460803384,121036,1142738,41460803384,121049,1142833,41460803384,121075,1142505,41460803384,121045,1142133,41460803384,121007,1141813,41460803384,120977,1141544,41460803384,121002,1141711,41460803384,120964,1141898,41460803384,120933,1141612,41460803384,120947,1141690,41460803384,120939,1141980,41460803384,120947,1141715,41460803384,120904,1141928,41460803384,120874,1142137,41460803384,120956,1141788,41460803384,120916,1141915,41460803384,120908,1141553,41460803384,120929,1141237,41460803384,120844,1141007,41460803384,120956,1140806,41460803384,120899,1140444,41460803384,120874,1140768,41460803384,120943,1141058,41460803384,120912,1140888,41460803384,120848,1141276,41460803384,120925,1141527,41460803384,120916,1141314,41460803384,120973,1141425,41460803384,120929,1141754,41460803384,120964,1141502,41460803384,120882,1141703,41460803384,120956,1142039,41460803384,120929,1141834,41460803384,120951,1141523,41460803384,121041,1141331,41460803384,121066,1141079,41460803384,121015,1140861,41460803384,121007,1141130,41460803384,121002,1140922,41460803384,120985,1141195,41460803384,121062,1141566,41460803384,121007,1141447,41460803384,120964,1141642,41460803384,121109,1142035,41460803384,121147,1141984,41460803384,121092,1142406,41460803384,121100,1142700,41460803384,121151,1142590,41460803384,121096,1143059,41460803384,121164,1143165,41460803384,121087,1142948,41460803384,121263,1142837,41460803384,121185,1142709,41460803384,121233,1142662,41460803384,121331,1142931,41460803384,121258,1143263,41460803384,121297,1143289,41460803384,121305,1143656,41460803384,121305,1144010,41460803384,121322,1144018,41460803384,121462,1144615,41460803384,121502,1144996,41460803384,121502,1144996,41460803384,121536,1145161,41460803384,121553,1145546,41460803384,121625,1145422,41460803384,121625,1145303,41460803384,121612,1145212,41460803384,121608,1144987,41460803384,121684,1144791,41460803384,121680,1145157,41460803384,121710,1144948,41460803384,121642,1145269,41460803384,121693,1146249,41460803384,121693,1146249,41460803384,121727,1146130,41460803384,121775,1146365,41460803384,121779,1146215,41460803384,121821,1146446,41460803384,121770,1146270,41460803384,121817,1146092,41460803384,121787,1145891,41460803384,121735,1145635,41460803384,121821,1145303,41460803384,121748,1145559,41460803384,121740,1145754,41460803384,121830,1145516,41460803384,121752,1145815,41460803384,121718,1145985,41460803384,121659,1145716,41460803384,121710,1145908,41460803384,121655,1145980,41460803384,121659,1145775,41460803384,121689,1145443,41460803384,121689,1145443,41460803384,121672,1145426,41460803384,121650,1145183,41460803384,121655,1144876,41460803384,121718,1144679,41460803384,121599,1144863,41460803384,121599,1145042,41460803384,121544,1144683,41460803384,121621,1144927,41460803384,121604,1145166,41460803384,121519,1144859,41460803384,121582,1145081,41460803384,121553,1145303,41460803384,121548,1144991,41460803384,121557,1145212,41460803384,121548,1145498,41460803384,121565,1145413,41460803384,121497,1145286,41460803384,121390,1145059,41460803384,121489,1144854,41460803384,121479,1144615,41460803384,121523,1144671,41460803384,121399,1144471,41460803384,121445,1144740,41460803384,121574,1145085,41460803384,121604,1144837,41460803384,121561,1145051,41460803384,121523,1145337,41460803384,121591,1145225,41460803384,121591,1145225,41460803384,121565,1145055,41460803384,121565,1144850,41460803384,121591,1144679,41460803384,121650,1144820,41460803384,121612,1144620,41460803384,121633,1144948,41460803384,121565,1145225,41460803384,121638,1145102,41460803384,121680,1145542,41460803384,121676,1145878,41460803384,121659,1145682,41460803384,121650,1146006,41460803384,121604,1146356,41460803384,121701,1146147,41460803384,121800,1146441,41460803384,121727,1147051,41460803384,121727,1147051,41460803384,121796,1147273,41460803384,121877,1147115,41460803384,121843,1147379,41460803384,121847,1147115,41460803384,121864,1147465,41460803384,121843,1147384,41460803384,121911,1147657,41460803384,121953,1148067,41460803384,121974,1147969,41460803384,122021,1148297,41460803384,122008,1148723,41460803384,121974,1148511,41460803384,122035,1148852,41460803384,122060,1149091,41460803384,122124,1149026,41460803384,122150,1149303,41460803384,122111,1149466,41460803384,122192,1149347,41460803384,122133,1149299,41460803384,122222,1149163,41460803384,122179,1149009,41460803384,122247,1148766,41460803384,122188,1149065,41460803384,122230,1149043,41460803384,122230,1149368,41460803384,122260,1149563,41460803384,122243,1149542,41460803384,122218,1149751,41460803384,122218,1150007,41460803384,122209,1149853,41460803384,122273,1149918,41460803384,122290,1150183,41460803384,122205,1149781,41460803384,122243,1150058,41460803384,122243,1149961,41460803384,122264,1149662,41460803384,122167,1149205,41460803384,122247,1148949,41460803384,122124,1148591,41460803384,122171,1148306,41460803384,122082,1148523,41460803384,122116,1148109,41460803384,122099,1148318,41460803384,122077,1148488,41460803384,122086,1148246,41460803384,122116,1148587,41460803384,122039,1148740,41460803384,122039,1148412,41460803384,121953,1148579,41460803384,122021,1148433,41460803384,122107,1148591,41460803384,122013,1148476,41460803384,122031,1148293,41460803384,122025,1147917,41460803384,122069,1148177,41460803384,121957,1148365,41460803384,121983,1148122,41460803384,122013,1148194,41460803384,121928,1148523,41460803384,122000,1148211,41460803384,121957,1148331,41460803384,122021,1148596,41460803384,121940,1148327,41460803384,121987,1148289,41460803384,122000,1148484,41460803384,122017,1148549,41460803384,121957,1148433,41460803384,121898,1148608,41460803384,121983,1148318,41460803384,122000,1148557,41460803384,121991,1148681,41460803384,121996,1148511,41460803384,121953,1148801,41460803384,122004,1149051,41460803384,122017,1148784,41460803384,121991,1149099,41460803384,122004,1149324,41460803384,122004,1149129,41460803384,122086,1149312,41460803384,122120,1149730,41460803384,122120,1149730,41460803384,122048,1149415,41460803384,122039,1149099,41460803384,122073,1148958,41460803384,122000,1148570,41460803384,122154,1148480,41460803384,122154,1148306,41460803384,122099,1148501,41460803384,122043,1148826,41460803384,122145,1148774,41460803384,122162,1148835,41460803384,122235,1149146,41460803384,122175,1148903,41460803384,122141,1149137,41460803384,122145,1149338,41460803384,122256,1149239,41460803384,122192,1149312,41460803384,122218,1149632,41460803384,122269,1149487,41460803384,122286,1149324,41460803384,122350,1149150,41460803384,122321,1149013,41460803384,122346,1149351,41460803384,122414,1149764,41460803384,122350,1149734,41460803384,122406,1150131,41460803384,122431,1150416,41460803384,122384,1150391,41460803384,122410,1150695,41460803384,122423,1151065,41460803384,122491,1150788,41460803384,122486,1150792,41460803384,122533,1150695,41460803384,122577,1150447,41460803384,122563,1150439,41460803384,122589,1150771,41460803384,122589,1150617,41460803384,122533,1150954,41460803384,122546,1151258,41460803384,122636,1151031,41460803384,122589,1151326,41460803384,122585,1151548,41460803384,122567,1151343,41460803384,122577,1151586,41460803384,122563,1151821,41460803384,122585,1151573,41460803384,122478,1151654,41460803384,122435,1151799,41460803384,122537,1151440,41460803384,122452,1151002,41460803384,122503,1150677,41460803384,122448,1150246,41460803384,122414,1150003,41460803384,122427,1149798,41460803384,122431,1149542,41460803384,122491,1149836,41460803384,122431,1149952,41460803384,122384,1149756,41460803384,122290,1149853,41460803384,122389,1150037,41460803384,122380,1149709,41460803384,122359,1149999,41460803384,122346,1150178,41460803384,122367,1149973,41460803384,122281,1150033,41460803384,122286,1149811,41460803384,122286,1149576,41460803384,122281,1149517,41460803384,122367,1149632,41460803384,122329,1149402,41460803384,122325,1149568,41460803384,122273,1149559,41460803384,122260,1149359,41460803384,122239,1149184,41460803384,122256,1149364,41460803394,122350,1149252,51460803394,122243,1149517,51460803394,122290,1149768,51460803394,122380,1149559,51460803394,122264,1149705,51460803394,122213,1149914,51460803394,122329,1149807,51460803394,122209,1149478,51460803394,122298,1149269,51460803394,122247,1148954,51460803394,122205,1148835,51460803394,122239,1149069,51460803394,122298,1148886,51460803394,122277,1149218,51460803394,122252,1149620,51460803394,122264,1149597,51460803394,122418,1149901,51460803394,122321,1150153,51460803394,122321,1150101,51460803394,122384,1150268,51460803394,122397,1150020,51460803394,122363,1149884,51460803394,122448,1149717,51460803394,122389,1149675,51460803394,122397,1149529,51460803394,122380,1149756,51460803394,122478,1150221,51460803394,122355,1149969,51460803394,122414,1150323,51460803394,122427,1150724,51460803394,122482,1150733,51460803394,122495,1151002,51460803394,122482,1151377,51460803394,122491,1151235,51460803394,122567,1151432,51460803394,122508,1151833,51460803394,122550,1151773,51460803394,122554,1151514,51460803394,122563,1151287,51460803394,122594,1151283,51460803394,122708,1151616,51460803394,122533,1152060,51460803394,122696,1151863,51460803394,122683,1152170,51460803394,122687,1152511,51460803394,122802,1152473,51460803394,122789,1152742,51460803394,122747,1153134,51460803394,122747,1152972,51460803394,122751,1153258,51460803394,122781,1153518,51460803394,122823,1153305,51460803394,122785,1153719,51460803394,122776,1153641,51460803394,122836,1153429,51460803394,122850,1153125,51460803394,122884,1152913,51460803394,122815,1152644,51460803394,122776,1152298,51460803394,122717,1152558,51460803394,122844,1152319,51460803394,122755,1152665,51460803394,122832,1152401,51460803394,122832,1152046,51460803394,122747,1152230,51460803394,122713,1152520,51460803394,122640,1152251,51460803394,122640,1152264,51460803394,122802,1152452,51460803394,122594,1152259,51460803394,122632,1152337,51460803394,122691,1152025,51460803394,122619,1151787,51460803394,122602,1151522,51460803394,122657,1151343,51460803394,122611,1150985,51460803394,122623,1151108,51460803394,122550,1151360,51460803394,122503,1151159,51460803394,122589,1151176,51460803394,122602,1151326,51460803394,122598,1151125,51460803394,122594,1151313,51460803394,122598,1151398,51460803394,122542,1151258,51460803394,122563,1151014,51460803394,122512,1150822,51460803394,122581,1150655,51460803394,122546,1150924,51460803394,122640,1151082,51460803394,122571,1150809,51460803394,122465,1151074,51460803394,122577,1151150,51460803394,122503,1150826,51460803394,122478,1151099,51460803394,122602,1151385,51460803394,122474,1151231,51460803394,122533,1151453,51460803394,122499,1151730,51460803394,122542,1151543,51460803394,122533,1151522,51460803394,122525,1151330,51460803394,122546,1151095,51460803394,122550,1150860,51460803394,122559,1150954,51460803394,122559,1150954,51460803394,122546,1151031,51460803394,122491,1151309,51460803394,122491,1151309,51460803394,122577,1151474,51460803394,122687,1151884,51460803394,122687,1151884,51460803394,122550,1152098,51460803394,122640,1152396,51460803394,122640,1152396,51460803394,122611,1152200,51460803394,122657,1152691,51460803394,122666,1152507,51460803394,122683,1152422,51460803394,122717,1152221,51460803394,122751,1151884,51460803394,122768,1151764,51460803394,122747,1151991,51460803394,122789,1151948,51460803394,122734,1152302,51460803394,122785,1152746,51460803394,122768,1152541,51460803394,122764,1152934,51460803394,122926,1153177,51460803394,122836,1152993,51460803394,122867,1153186,51460803394,122858,1153556,51460803394,122956,1153356,51460803394,122964,1153484,51460803394,122939,1153368,51460803394,122918,1153152,51460803394,122990,1152998,51460803394,122884,1153279,51460803394,122973,1153177,51460803394,122998,1153488,51460803394,122986,1153783,51460803394,122969,1153535,51460803394,122952,1153658,51460803394,122896,1153817,51460803394,122973,1153624,51460803394,122969,1153808,51460803394,122918,1153975,51460803394,122901,1153675,51460803394,122806,1153688,51460803394,122798,1153800,51460803394,122704,1153778,51460803394,122768,1153501,51460803394,122713,1153104,51460803394,122717,1152763,51460803394,122721,1152579,51460803394,122666,1152661,51460803394,122640,1152289,51460803394,122657,1152460,51460803394,122585,1152627,51460803394,122640,1152375,51460803394,122594,1152562,51460803394,122606,1152606,51460803394,122606,1152606,51460803394,122520,1152333,51460803394,122533,1152037,51460803394,122516,1151756,51460803394,122542,1151449,51460803394,122520,1151155,51460803394,122465,1150924,51460803394,122457,1151231,51460803394,122448,1151449,51460803394,122401,1151201,51460803394,122393,1151514,51460803394,122376,1151662,51460803394,122478,1151360,51460803394,122397,1151594,51460803394,122444,1151586,51460803394,122384,1151398,51460803394,122457,1151594,51460803394,122461,1151743,51460803394,122414,1151398,51460803394,122397,1151197,51460803394,122397,1151385,51460803394,122410,1150937,51460803394,122423,1151218,51460803394,122410,1151479,51460803394,122397,1151223,51460803394,122461,1151607,51460803394,122457,1151859,51460803394,122495,1151752,51460803394,122512,1151969,51460803394,122435,1152102,51460803394,122520,1151906,51460803394,122478,1152094,51460803394,122465,1152379,51460803394,122503,1152208,51460803394,122615,1152481,51460803394,122537,1152191,51460803394,122623,1151923,51460803394,122615,1151679,51460803394,122606,1151957,51460803394,122537,1151756,51460803394,122581,1151914,51460803394,122533,1152315,51460803394,122571,1152119,51460803394,122615,1152388,51460803394,122636,1152716,51460803394,122615,1152443,51460803394,122670,1152814,51460803394,122619,1153112,51460803394,122717,1153027,51460803394,122708,1153522,51460803394,122708,1153522,51460803394,122687,1153800,51460803394,122810,1153484,51460803394,122734,1153698,51460803394,122798,1153582,51460803394,122725,1153245,51460803394,122713,1153590,51460803394,122776,1153300,51460803394,122844,1153548,51460803394,122734,1153872,51460803394,122687,1153663,51460803394,122734,1153667,51460803394,122640,1153893,51460803394,122640,1153671,51460803394,122649,1153646,51460803394,122615,1153425,51460803394,122623,1153488,51460803394,122670,1153381,51460803394,122581,1153373,51460803394,122537,1152955,51460803394,122550,1152959,51460803394,122563,1153177,51460803394,122508,1152776,51460803394,122503,1152913,51460803394,122482,1152989,51460803394,122461,1152631,51460803394,122410,1152686,51460803394,122465,1152822,51460803394,122457,1152452,51460803394,122367,1152469,51460803394,122389,1152473,51460803394,122393,1152136,51460803394,122312,1151791,51460803394,122435,1151398,51460803394,122338,1151142,51460803394,122363,1150758,51460803394,122304,1150937,51460803394,122264,1150468,51460803394,122325,1150613,51460803394,122298,1150792,51460803394,122209,1150447,51460803394,122188,1150549,51460803394,122171,1150797,51460803394,122167,1150412,51460803394,122133,1150630,51460803394,122179,1150843,51460803394,122171,1150596,51460803394,122120,1150575,51460803394,122213,1150408,51460803394,122124,1150063,51460803394,122141,1149756,51460803394,122090,1149457,51460803394,122167,1149402,51460803394,122192,1149495,51460803394,122099,1149696,51460803394,122213,1149572,51460803394,122141,1149734,51460803394,122128,1149927,51460803394,122167,1149760,51460803394,122141,1149884,51460803394,122128,1149986,51460803394,122145,1149713,51460803394,122103,1149709,51460803394,122154,1149862,51460803394,122158,1149615,51460803394,122171,1149483,51460803394,122171,1149201,51460803394,122243,1149078,51460803394,122235,1149466,51460803394,122247,1149696,51460803394,122226,1149419,51460803394,122247,1149726,51460803394,122256,1150058,51460803394,122312,1150003,51460803394,122308,1150229,51460803394,122286,1150507,51460803394,122338,1150468,51460803394,122239,1150519,51460803394,122290,1150439,51460803394,122316,1150434,51460803394,122290,1150251,51460803394,122281,1150511,51460803394,122363,1150297,51460803394,122380,1150583,51460803394,122406,1150681,51460803394,122389,1150613,51460803394,122389,1150391,51460803394,122380,1150621,51460803394,122435,1150370,51460803394,122338,1150473,51460803394,122393,1150801,51460803394,122359,1150447,51460803394,122363,1150443,51460803394,122363,1150080,51460803394,122281,1149751,51460803394,122281,1149398,51460803394,122239,1149180,51460803394,122184,1148911,51460803394,122184,1148983,51460803394,122111,1149184,51460803394,122116,1148757,51460803394,122086,1149039,51460803394,122056,1149112,51460803394,121953,1148727,51460803394,122031,1149043,51460803394,122004,1149210,51460803394,121919,1148689,51460803394,121991,1148604,51460803394,121902,1148852,51460803394,121796,1148549,51460803394,121889,1148246,51460803394,121949,1148024,51460803394,